
time (s)       VT("/VIP") - V VT("/VOUTP") - VT("/VOUTP") ( VT("/VOUTN") (


5.02e-08       0.6071116799355438 0.6071015019442788 0.7535509040228062 0.1464494020785273
5.27e-08       0.6289215239515702 0.6289118642063095 0.7644561068166992 0.1355442426103897
5.52e-08       0.6495712943820633 0.6495621984039556 0.774781270061264 0.1252190716573085
5.77e-08       0.6690229008625275 0.6690144003212271 0.784507346979653 0.1154929466584259
6.02e-08       0.6872404640126043 0.6872325773887037 0.7936164013110363 0.1063838239223325
6.27e-08       0.704190385465882 0.7041831134141447 0.8020916386404252 0.0979085252262805
6.52e-08       0.7198413914862698 0.7198347213521452 0.8099174110356453 0.09008268968349999
6.77e-08       0.7341647046017711 0.7341589856195883 0.8170797260790481 0.08292074045945991
7.020000000000001e-08 0.7471337403156361 0.7471286735225779 0.8235645473296889 0.07643587380711088
7.27e-08       0.7587246534891317 0.758720234170675 0.8293603062174789 0.07064007204680388
7.52e-08       0.7689160646329443 0.7689122694705423 0.834456307054346 0.06554403758380387
7.77e-08       0.7776891765103388 0.7776860063457005 0.8388431633428229 0.0611571569971225
8.02e-08       0.7850278054415498 0.7850252456907562 0.842512772401605 0.05748752671084888
8.269999999999999e-08 0.7909184159805653 0.7909164717650308 0.8454583748296649 0.05454190306463417
8.52e-08       0.7953501427914673 0.7953488183114182 0.8476745396670862 0.05232572135566793
8.77e-08       0.7983148114407586 0.7983141154369636 0.8491571809621085 0.05084306552514481
9.02e-08       0.7998069534939507 0.7998068982782666 0.8499035652247703 0.05009666694650371
9.27e-08       0.7998238165995003 0.7998244133171495 0.8499123163226905 0.050087903005541
9.520000000000001e-08 0.7983653693306385 0.7983666266238494 0.8491834172720185 0.05081679064816919
9.770000000000001e-08 0.7954343000353657 0.7954362179246298 0.8477182064623485 0.05228198853771862
1.002e-07      0.7910360165491579 0.7910385930658943 0.8455193878099043 0.05448079474400999
1.027e-07      0.7851786296253483 0.7851818531868293 0.8425910136692414 0.05740916048241207
1.052e-07      0.777872942712824 0.7778767921589976 0.8389384755240664 0.06106168336506868
1.077e-07      0.7691324306738676 0.7691368913933003 0.8345685102019935 0.06543161880869315
1.102e-07      0.7589732152905008 0.7589782639345476 0.8294891759725176 0.07051091203797002
1.127e-07      0.747414045476927 0.7474196686856416 0.8237098582994349 0.07629018961379329
1.152e-07      0.7344762407828306 0.7344824216131778 0.8172412170776457 0.082758795464468
1.177e-07      0.7201836614837102 0.7201903716588015 0.8100951778247206 0.08990480616591916
1.202e-07      0.7045626684485682 0.7045698598732167 0.8022848810697757 0.09771502119655905
1.227e-07      0.687642075812236 0.6876498184607674 0.7938248543837603 0.1061750359229928
1.252e-07      0.6694530967943274 0.669461399013361 0.7847306403162823 0.1152692413029213
1.277e-07      0.6500292852893852 0.6500381540339287 0.7750190178901804 0.1249808638562516
1.302e-07      0.6294064691728931 0.6294158911667689 0.764707892561302 0.1352920013945332
1.327e-07      0.6076226861788577 0.6076326378817822 0.7538162775837713 0.1461836397019891
1.352e-07      0.5847181205582819 0.5847285403785984 0.7423642422720034 0.1576357018934049
1.377e-07      0.5607350212830512 0.5607459004888031 0.7303729551959417 0.1696270547071386
1.402e-07      0.5357176259007401 0.5357289331702414 0.717864510706279 0.1821355775360376
1.427e-07      0.5097120777950611 0.5097237897724731 0.7048619775204656 0.1951381877479926
1.452e-07      0.4827663411154434 0.4827784422618969 0.6913892842326068 0.2086108419707099
1.477e-07      0.4549301255155191 0.4549426208900453 0.6774713432110515 0.2225287223210062
1.502e-07      0.4262547781792311 0.4262676996216933 0.6631338510116522 0.2368661513899589
1.527e-07      0.3967931890448572 0.3968065037458618 0.6484032362976853 0.2515967325518234
1.552e-07      0.3665996874878735 0.3666133389516341 0.6333066490353142 0.26669331008368
1.577e-07      0.3357299778124167 0.3357439720624685 0.6178719875312355 0.282128015468767
1.602e-07      0.3042409924811292 0.3042552035681719 0.6021277048148599 0.297872501246688
1.627e-07      0.2721907953601268 0.2722053799544814 0.5861029761913158 0.3138975962368344
1.652e-07      0.2396385292049183 0.2396531489522463 0.5698268964101353 0.330173747457889
1.677e-07      0.2066442428295896 0.2066589283079807 0.5533297361778788 0.3466708078698981
1.702e-07      0.1732687964120724 0.1732836504829046 0.5366419757787065 0.3633583252958019
1.727e-07      0.1395737537695845 0.1395888481876289 0.5197944327173379 0.380205584529709
1.752e-07      0.10562126580331 0.1056366138005177 0.5028181878837132 0.3971815740831956
1.777e-07      0.07147395779769383 0.0714894888084191 0.4857445515287369 0.4142550627203178
1.802e-07      0.03719481365847987 0.03721036859364809 0.4686050008326292 0.4313946322389811
1.827e-07      0.002847061559024596 0.002862543461322879 0.4514311291536676 0.4485685856923447
1.852e-07      -0.03150594184325983 -0.03149057515415792 0.4342546238896633 0.4657451990438213
1.877e-07      -0.06580083114535673 -0.06578554084716551 0.4171071884573111 0.4828927293044766
1.902e-07      -0.0999743493179789 -0.0999591018264325 0.4000204643095847 0.4999795661360171
1.927e-07      -0.1339634628796402 -0.1339482582170509 0.3830259506255834 0.5169742088426343
1.952e-07      -0.1677054786103954 -0.1676903497183621 0.3661549835257224 0.5338453332440845
1.977e-07      -0.2011381572265728 -0.201123168117328 0.349438644751411 0.5505618128687391
2.002e-07      -0.2341998317366685 -0.2341850364258008 0.3329077657849507 0.5670928022107515
2.027e-07      -0.2668295138817916 -0.266814970653742 0.3165928198118439 0.5834077904655859
2.052e-07      -0.2989670140039006 -0.2989527313354755 0.3005239402847437 0.5994766716202191
2.077e-07      -0.3305530546222484 -0.330538905888893 0.2847307970785283 0.6152697029674212
2.102e-07      -0.3615293884015139 -0.3615155517044963 0.2692425135662186 0.6307580652707149
2.127e-07      -0.3918388574134498 -0.3918253279971621 0.2540876965869579 0.6459130245841199
2.152e-07      -0.4214254970333737 -0.4214122813773826 0.239294165534262 0.6607064469116446
2.177e-07      -0.450234819713043 -0.4502219365215853 0.2248892988580286 0.6751112353796138
2.202e-07      -0.478213682423653 -0.4782011670936779 0.2108996463037826 0.6891008133974605
2.227e-07      -0.5053104546199155 -0.5052983617052793 0.1973510011582346 0.7026493628635139
2.252e-07      -0.5314751701586418 -0.5314635331227517 0.184268377983718 0.7157319111064697
2.277e-07      -0.556659561565833 -0.5566483945634992 0.1716759175392027 0.7283243121027019
2.302e-07      -0.5808171710800445 -0.5808064697881498 0.1595968556892467 0.7404033254773965
2.327e-07      -0.6039034421408974 -0.6038932482176927 0.1480534664646038 0.7519467146822966
2.352e-07      -0.6258757899222173 -0.6258660835005472 0.1370670454882468 0.762933128988794
2.377e-07      -0.6466936828066451 -0.6466844791812124 0.1266578487647315 0.7733423279459439
2.402e-07      -0.6663187206731479 -0.6663100461022443 0.1168450679608872 0.7831551140631314
2.427e-07      -0.6847147036632789 -0.6847065876842401 0.1076467990717166 0.7923533867559567
2.452e-07      -0.7018476990467635 -0.7018401679480141 0.09908000891764981 0.800920176865664
2.477e-07      -0.7176861083525721 -0.717679215196704 0.09116049022647278 0.8088397054231767
2.502e-07      -0.7322007220640798 -0.7321945622009539 0.08390285392503086 0.8160974161259847
2.527e-07      -0.7453647635979402 -0.7453593104678539 0.07732048474866871 0.8226797952165227
2.552e-07      -0.7571539422401928 -0.7571491820083003 0.07142555092481678 0.8285747329331171
2.577e-07      -0.7675465127441448 -0.7675424322225303 0.06622892519044922 0.8337713574129795
2.602e-07      -0.7765233057483997 -0.7765198862618669 0.06174019478833606 0.8382600810502029
2.627e-07      -0.7840677639354673 -0.7840649966230971 0.05796763698771416 0.8420326336108113
2.652e-07      -0.7901659733706065 -0.7901638593126289 0.0549182013062593 0.8450820606188881
2.677e-07      -0.7948066844871763 -0.794805221822855 0.05259751525767221 0.8474027370805272
2.702e-07      -0.7979813373590351 -0.7979805256667728 0.05100985876523336 0.8489903844320063
2.727e-07      -0.7996840765156913 -0.799683920115444 0.05015815606972087 0.8498420761851648
2.752e-07      -0.7999117613066556 -0.7999122637005768 0.05004397862736406 0.8499562423279409
2.777e-07      -0.7986639716775303 -0.7986651346490519 0.05066753744970382 0.8493326720987556
2.802e-07      -0.7959430089886692 -0.7959448320727424 0.05202768238653183 0.8479725144592741
2.827e-07      -0.791753894056218 -0.7917563771831309 0.05412190353831893 0.8458782807214498
2.852e-07      -0.7861043516228289 -0.7861074839621037 0.0569463461328863 0.84305383009499
2.877e-07      -0.7790048017751913 -0.7790085634675007 0.06049579877562841 0.8395043622431291
2.902e-07      -0.770468339158217 -0.7704727128855333 0.0647637110728063 0.8352364239583396
2.927e-07      -0.7605107090309425 -0.7605156758054675 0.06974220893638926 0.8302578847418568
2.952e-07      -0.7491502862092505 -0.7491558271711122 0.07542211318785823 0.8245779403589704
2.977e-07      -0.7364080279709057 -0.736414131035526 0.08179294302853676 0.8182070740640627
3.002e-07      -0.7223074316292952 -0.7223140667943859 0.08884296069020405 0.8111570274845901
3.027e-07      -0.7068745044859437 -0.7068816671777087 0.09655914334910234 0.803440810526811
3.052e-07      -0.6901377132856615 -0.6901453769529772 0.104927257487509 0.7950726344404861
3.077e-07      -0.6721279320696462 -0.6721361542371099 0.1139318643754082 0.7860680186125181
3.102e-07      -0.6528783836567267 -0.652887171431735 0.1235563548553161 0.7764435262870512
3.127e-07      -0.6324245761246645 -0.6324339204100513 0.1337829856920064 0.7662169061020577
3.152e-07      -0.6108042347704649 -0.6108141128340101 0.1445929001114018 0.7554070129454119
3.177e-07      -0.5880572413743765 -0.5880675925765401 0.1559661714144098 0.74403376399095
3.202e-07      -0.5642255555040047 -0.5642363691552699 0.1678818167532624 0.7321181859085323
3.227e-07      -0.5393531348122944 -0.5393643823986037 0.1803178466217663 0.71968222902037
3.252e-07      -0.5134858565169272 -0.5134975109158654 0.1932513253805455 0.7067488362964108
3.277e-07      -0.4866714288103047 -0.4866834754124332 0.2066583292635215 0.6933418046759547
3.302e-07      -0.4589593177433594 -0.4589717533430758 0.2205141597693353 0.6794859131124112
3.327e-07      -0.4304006438034638 -0.4304135025355613 0.2347932562791299 0.6652067588146912
3.352e-07      -0.4010480798307829 -0.4010613387904679 0.2494693163342835 0.6505306551247514
3.377e-07      -0.37095575856188 -0.3709693642749958 0.2645152962331486 0.6354846605081444
3.402e-07      -0.3401791913834313 -0.3401931485503604 0.2799034172558656 0.6200965658062261
3.427e-07      -0.3087751478603482 -0.3087893347420336 0.2956054191259575 0.604394753867991
3.452e-07      -0.2768015235408992 -0.2768161011678114 0.3115922238644581 0.5884083250322696
3.477e-07      -0.2443173252358593 -0.2443319409881862 0.3278343523665679 0.5721662933547542
3.502e-07      -0.2113824762665594 -0.2113971462284341 0.3443017110665151 0.5556988572949492
3.527e-07      -0.1780577272611798 -0.1780725510254559 0.3609638955641219 0.5390364465895778
3.552e-07      -0.1444045485306617 -0.1444196053931888 0.3777902269304478 0.5222098323236366
3.577e-07      -0.1104850140533878 -0.1105003299549052 0.3947497301148676 0.5052500600697728
3.602e-07      -0.07636168840830644 -0.07637719946962265 0.4118112156929726 0.4881884151625952
3.627e-07      -0.0420975114277805 -0.04211307462448789 0.4289432717559024 0.4710563463803902
3.652e-07      -0.00775568315139763 -0.007771177217209549 0.4461142637531698 0.4538854409703793
3.677e-07      0.02660045067641604 0.0265850683565036 0.4632924367213017 0.436707368364798
3.702e-07      0.0609075186280677 0.0608922196271306 0.4804460617306008 0.4195538421034702
3.727e-07      0.0951022411948961 0.09508698879720488 0.4975435009954806 0.4024565121982757
3.752e-07      0.1291215457912131 0.129106334290645 0.5145532360921933 0.3854469018015482
3.777e-07      0.1629026836646311 0.1628875402611304 0.5314439173960922 0.3685563771349618
3.802e-07      0.1963833434128509 0.1963683302160828 0.5481843848591631 0.3518160546430803
3.827e-07      0.2295017694898948 0.2294869435197775 0.564743750090602 0.3352568065708244
3.852e-07      0.2621968698721172 0.2621822865841991 0.5810914467282562 0.3189091601440571
3.877e-07      0.2944083327391516 0.294394023754996 0.5971973168473788 0.3028032930923828
3.902e-07      0.3260767452731763 0.326062548232682 0.6130315210184706 0.2869689727857886
3.927e-07      0.3571437058829861 0.3571298252806247 0.6285651945728743 0.2714353692922496
3.952e-07      0.3875519009446093 0.3875383220876676 0.6437695199171918 0.2562311978295242
3.977e-07      0.4172451684422085 0.4172319115744078 0.6586162706413821 0.2413843590669743
4.002e-07      0.4461688228654275 0.4461558883116228 0.6730782149742093 0.2269223266625864
4.027e-07      0.4742695224934734 0.4742569580228981 0.6871287300329896 0.2128717720100915
4.052e-07      0.5014954041386498 0.5014832488706982 0.7007418122127844 0.1992585633420862
4.077e-07      0.5277962668765747 0.5277845632933457 0.7138924311273329 0.1861078678339872
4.102e-07      0.5531235921463387 0.553112358973705 0.7265562985323555 0.1734439395586505
4.127e-07      0.5774306581648901 0.5774198897165717 0.7387100384241964 0.1612901487076246
4.152e-07      0.6006726314222776 0.6006623689402385 0.7503312762072838 0.1496689072670453
4.177e-07      0.622806641435379 0.6227968646610509 0.7613985197272579 0.138601655066207
4.202e-07      0.6437918579283305 0.6437825810024349 0.771891378461582 0.128108797459147
4.227e-07      0.6635895720259922 0.6635808200022172 0.7817905006449857 0.1182096806427684
4.252e-07      0.6821632653806072 0.6821550678930753 0.7910776266878297 0.1089225587947543
4.277e-07      0.6994786774242158 0.6994710613488249 0.799735623708728 0.1002645623599032
4.302e-07      0.7155038724655618 0.7154968883344852 0.807748541820642 0.0922516534861568
4.327e-07      0.7302092954402962 0.7302030346803845 0.8151016506808643 0.08489861600047981
4.352e-07      0.743567822480095 0.743562269603556 0.8217812741821068 0.0782190045785507
4.377e-07      0.7555548009918398 0.7555499423009141 0.8277751130048551 0.07222517070394094
4.402e-07      0.7661481211078437 0.7661439444627687 0.8330721137267693 0.06692816926400059
4.427e-07      0.7753282430156819 0.7753247295789295 0.83766250303414 0.0623377734552106
4.452e-07      0.7830782343482837 0.7830753744553248 0.8415378228911194 0.05846244843579471
4.477e-07      0.7893838018365467 0.7893815944055091 0.8446909288936106 0.05530933448810142
4.502e-07      0.7942333140029219 0.794231758394104 0.8471160060378354 0.05288424764373145
4.527e-07      0.7976178254751839 0.7976169206191113 0.8488085825881087 0.0511916619689974
4.552e-07      0.7995310937094141 0.7995308434600282 0.849765538656862 0.05023469519683375
4.577e-07      0.7999695897561037 0.7999699978666586 0.8499851102232258 0.05001511235656719
4.602e-07      0.7989325046882593 0.7989335731010028 0.8494668921173957 0.05053331901639295
4.627e-07      0.796421751301383 0.7964234800668946 0.8482118393433423 0.0517883592764478
4.652e-07      0.7924419623862101 0.7924443516697662 0.8462222688039268 0.05377791713416053
4.677e-07      0.7870004771279226 0.7870035181831883 0.8435018479413471 0.05649832975815889
4.702e-07      0.7801073316191798 0.7801110047612478 0.8400555839270927 0.05994457916584476
4.727e-07      0.7717752397956937 0.77177952555647 0.835889833275841 0.06411030771937094
4.752e-07      0.7620195698076094 0.7620244536371873 0.8310122764446283 0.0689878228074409
4.777e-07      0.7508583217718873 0.7508637796846959 0.8254319194296132 0.07456813974491733
4.802e-07      0.7383120897181578 0.738318114432472 0.8191590679814114 0.08084095354893947
4.826999999999999e-07 0.7244040072036421 0.7244105670330713 0.8122052796158036 0.08779471258273232
4.852e-07      0.7091597270113379 0.7091668147088711 0.8045833866524617 0.0954165719435905
4.877e-07      0.6926073674726527 0.6926149513882188 0.7963074228448406 0.1036924714566217
4.902e-07      0.6747774620751742 0.6747856043539516 0.7873927444249633 0.1126071400710116
4.927e-07      0.655702901510275 0.6557116081721915 0.7778557443474901 0.1221441361752985
4.952e-07      0.6354188726682541 0.6354281388094251 0.7677140143248993 0.1322858755154742
4.977e-07      0.6139627867176906 0.6139725907754364 0.7569862502303166 0.1430136594548802
5.002e-07      0.5913742215813084 0.5913845269285681 0.7456922343762064 0.1543077074476382
5.027e-07      0.567694846955736 0.5677055963785743 0.7338527951648524 0.166147198786278
5.051999999999999e-07 0.5429683375642205 0.5429795250357555 0.7214897943154004 0.1785102692796449
5.077e-07      0.5172403030164532 0.5172519015817464 0.7086260303809903 0.191374128799244
5.102e-07      0.4905581936757914 0.4905701834798307 0.6952851633069731 0.2047149798271424
5.127e-07      0.4629712306255021 0.462983606845441 0.6814918432468532 0.2185082364014121
5.152e-07      0.4345303052713068 0.4345431019697657 0.667271564934857 0.2327284629650913
5.177e-07      0.4052878716285888 0.4053010746823411 0.6526505248188156 0.2473494501364746
5.202e-07      0.3752978634932139 0.3753114225232516 0.637655689473133 0.2623442669498814
5.227e-07      0.3446155976154229 0.3446294748020292 0.6223147453893392 0.27768527058731
5.252e-07      0.3132976775963225 0.3133118398144779 0.6066559896634174 0.2933441498489395
5.276999999999999e-07 0.2814018303120397 0.28141640026279 0.5907084615517487 0.3092920612889588
5.302e-07      0.2489869229075406 0.2490015355851563 0.5745010897687611 0.3254995541836048
5.327e-07      0.2161127513468023 0.2161274079461471 0.5580639985905503 0.3419365906444032
5.352e-07      0.1828399544341228 0.1828547499805676 0.5414275655577265 0.358572815577159
5.377e-07      0.1492299065823546 0.1492449280793438 0.5246225131180897 0.3753775850387459
5.401999999999999e-07 0.1153446026705789 0.1153598828799488 0.5076798538765382 0.3923199709965895
5.427e-07      0.08124654408321932 0.08126203302032567 0.4906308411214527 0.409368808101127
5.452e-07      0.04699862424493035 0.04701419438205805 0.4735068988338863 0.4264927044518282
5.477e-07      0.01266401274431931 0.01267951836999981 0.4563396063079498 0.44366008793795
5.501999999999999e-07 -0.02169395801404525 -0.02167855878231281 0.4391606135656524 0.4608391723479652
5.527e-07      -0.05601191300456066 -0.0559966043165729 0.4220016430954763 0.4779982474120492
5.552e-07      -0.09022655257503817 -0.09021129526034498 0.4048943503223607 0.4951056455827057
5.577e-07      -0.1242747675006709 -0.1242595486382837 0.387870285338799 0.5121298339770827
5.601999999999999e-07 -0.1580937555805156 -0.1580785990682456 0.3709608363985827 0.5290394354668283
5.626999999999999e-07 -0.191621135989565 -0.1916061001887123 0.354197160226696 0.5458032604154083
5.652e-07      -0.2247950666139138 -0.2247802109676736 0.3376101660921706 0.5623903770598442
5.677e-07      -0.257554354228463 -0.2575397310673255 0.3212304354431076 0.5787701665104331
5.702e-07      -0.289838567846738 -0.2898242198688379 0.3050881966116322 0.59491241648047
5.726999999999999e-07 -0.3215881592654755 -0.3215739259726416 0.2892132754459334 0.6107872014185751
5.752e-07      -0.3527445770976194 -0.352730653048431 0.2736349484964922 0.6263656015449232
5.777e-07      -0.3832503460070081 -0.3832367206816926 0.2583819881907332 0.6416187088724258
5.802e-07      -0.4130491318817535 -0.4130358359390505 0.2434824066528645 0.6565182425919149
5.826999999999999e-07 -0.4420860284924352 -0.4420730438483286 0.2289637532187493 0.6710367970670779
5.851999999999999e-07 -0.4703075039289054 -0.4702948853726994 0.2148528105029574 0.6851476958756567
5.877e-07      -0.4976614728891743 -0.4976492557284005 0.2011755660411597 0.6988248217695602
