
time (s)       VT("/out") (V)


2.79e-08       0.546252798140515 
3.04e-08       0.5565557729941292 
3.29e-08       0.5644618964518262 
3.54e-08       0.5719016229645718 
3.79e-08       0.5812133072407045 
4.04e-08       0.5885293216033868 
4.29e-08       0.5970645792563601 
4.54e-08       0.6035093023277405 
4.79e-08       0.6111545988258317 
5.04e-08       0.6176274944064194 
5.29e-08       0.6252446183953033 
5.54e-08       0.6305283757338551 
5.79e-08       0.637573385518591 
6.04e-08       0.64242899887836 
6.29e-08       0.6490584779178412 
6.539999999999999e-08 0.6506118295368397 
6.789999999999999e-08 0.6565338411650703 
7.04e-08       0.6593997261885919 
7.29e-08       0.6639921722113503 
7.54e-08       0.6664543678712164 
7.79e-08       0.6710371819960862 
8.040000000000001e-08 0.6726776240910305 
8.290000000000001e-08 0.673649038557807 
8.54e-08       0.676320939334638 
8.790000000000001e-08 0.6771904055613129 
9.039999999999999e-08 0.6797040867867981 
9.289999999999999e-08 0.6798434442270059 
9.539999999999999e-08 0.6798434442270059 
9.79e-08       0.6782284320024436 
1.004e-07      0.678082191780822 
1.029e-07      0.6772154741956027 
1.054e-07      0.674559686888454 
1.079e-07      0.6737220329406988 
1.104e-07      0.6703375291860766 
1.129e-07      0.6675146771037183 
1.154e-07      0.6650570456833437 
1.179e-07      0.6604696673189824 
1.204e-07      0.6571956414664422 
1.229e-07      0.6516634050880626 
1.254e-07      0.6454547685576048 
1.279e-07      0.6431045105754022 
1.304e-07      0.6358121330724071 
1.329e-07      0.6287671232876713 
1.354e-07      0.6239065604266369 
1.379e-07      0.6164383561643836 
1.404e-07      0.6099899689944291 
1.429e-07      0.6023483365949119 
1.454e-07      0.5958659889043523 
1.479e-07      0.5882583170254404 
1.504e-07      0.5801507144322117 
1.529e-07      0.5706457925636008 
1.554e-07      0.5641002613698018 
1.579e-07      0.5547614808151303 
1.604e-07      0.5459882583170255 
1.629e-07      0.537033340804666 
1.654e-07      0.5265654540583561 
1.679e-07      0.5178082191780823 
1.704e-07      0.5096139072472023 
1.729e-07      0.4973854769418951 
1.754e-07      0.489628180039139 
1.779e-07      0.4806124237774231 
1.804e-07      0.4702336270804796 
1.829e-07      0.4596868884540117 
1.854e-07      0.449119373776908 
1.879e-07      0.4418278274390747 
1.904e-07      0.4297455968688845 
1.929e-07      0.4191780821917809 
1.954e-07      0.4110990187638403 
1.979e-07      0.3998043052837574 
2.004e-07      0.3919312598340609 
2.029e-07      0.3829097723821616 
2.054e-07      0.3716242661448141 
2.079e-07      0.3637490503698826 
2.104e-07      0.3547121462701588 
2.129e-07      0.3452054794520548 
2.154e-07      0.336399217221135 
2.179e-07      0.3290938925110733 
2.204e-07      0.3187866927592955 
2.229e-07      0.3122974810871743 
2.254e-07      0.3046966731898239 
2.279e-07      0.2973903300964058 
2.304e-07      0.2888454011741683 
2.329e-07      0.2823103394723515 
2.354e-07      0.2755894271005188 
2.379e-07      0.2700331380061293 
2.404e-07      0.2648024624671534 
2.429e-07      0.2589041095890411 
2.454e-07      0.2555588088441371 
2.479e-07      0.2474231954523106 
2.504e-07      0.2434723740647814 
2.529e-07      0.2405555085256615 
2.554e-07      0.2360078277886497 
2.579e-07      0.233504535345302 
2.604e-07      0.2289628180039139 
2.629e-07      0.2273104099010546 
2.654e-07      0.2263148905889739 
2.679e-07      0.223679060665362 
2.704e-07      0.2228378932003993 
2.729e-07      0.2219178082191781 
2.754e-07      0.2203097116848831 
2.779e-07      0.2201565557729941 
2.804e-07      0.2217441819241378 
2.829e-07      0.2219178082191781 
2.854e-07      0.2227559332557056 
2.879e-07      0.225440313111546 
2.904e-07      0.2263190690812125 
2.929e-07      0.2288699720529646 
2.954e-07      0.2324853228962818 
2.979e-07      0.2349771924061816 
3.004e-07      0.2395303326810176 
3.029e-07      0.2420287681897129 
3.054e-07      0.2479583695152346 
3.079e-07      0.2545296746675612 
3.104e-07      0.2561138588846532 
3.129e-07      0.263659567172999 
3.154e-07      0.2688960233388414 
3.179e-07      0.2759587176366567 
3.204e-07      0.2827045006796869 
3.229e-07      0.2882943701171 
3.254e-07      0.2958904109589041 
3.279e-07      0.3023602788366133 
3.304e-07      0.3108249887606189 
3.329e-07      0.3182321406238934 
3.354e-07      0.3275929549902153 
3.379e-07      0.3349572561508252 
3.404e-07      0.347167744443296 
3.429e-07      0.3540117416829746 
3.454e-07      0.3621189658002988 
3.479e-07      0.3707001352588284 
3.504e-07      0.3804305283757339 
3.529e-07      0.3893453776597475 
3.554e-07      0.398883022490397 
3.579e-07      0.4103718199608611 
3.604e-07      0.4184908153635199 
3.629e-07      0.4297455968688845 
3.654e-07      0.4385518590998043 
3.679e-07      0.4475436734088311 
3.704e-07      0.4596868884540117 
3.729e-07      0.4684931506849315 
3.754e-07      0.4790606653620352 
3.779e-07      0.4864282912757346 
3.804e-07      0.4984344422700587 
3.829e-07      0.5091704465426309 
3.854e-07      0.5162031464214786 
3.879e-07      0.526614481409002 
3.904e-07      0.5354207436399218 
3.929e-07      0.5427525681694106 
3.954e-07      0.5530332681017613 
3.979e-07      0.5636007827788649 
4.004e-07      0.5701169407984299 
4.029e-07      0.5794520547945206 
4.054e-07      0.585951055314313 
4.079e-07      0.5953033268101761 
4.104e-07      0.6017856152548807 
4.129e-07      0.6093933463796478 
4.154e-07      0.6158820493108371 
4.179e-07      0.6234833659491195 
4.204e-07      0.6283864423751154 
4.229e-07      0.6358121330724071 
4.254e-07      0.6410958904109589 
4.279e-07      0.6443907841809859 
4.304e-07      0.6525912292241364 
4.329e-07      0.6551859099804306 
4.354e-07      0.65848115571692 
4.379e-07      0.6639921722113503 
4.404e-07      0.6664632264952222 
4.429e-07      0.6692759295499021 
4.454e-07      0.6717400912884449 
4.479e-07      0.673647749890619 
4.504e-07      0.676320939334638 
4.529e-07      0.6771893814294843 
4.554e-07      0.678082191780822 
4.579e-07      0.6797225028797788 
4.604e-07      0.6798434442270059 
4.629e-07      0.6798434442270059 
4.654e-07      0.6782070543395357 
4.679e-07      0.6772295118511455 
4.704e-07      0.674559686888454 
4.729e-07      0.6737254979732659 
4.754e-07      0.6711795488858808 
4.779e-07      0.6675146771037183 
4.804e-07      0.6650990171159207 
4.829e-07      0.6604696673189824 
4.854e-07      0.6580258454367335 
4.879e-07      0.6534246575342466 
4.904e-07      0.6501122021838029 
4.929e-07      0.6419305856211096 
4.954000000000001e-07 0.6380243264191444 
4.979e-07      0.6321441107926503 
5.004e-07      0.6258353172186669 
5.029e-07      0.6181996086105676 
5.054e-07      0.6118340877219246 
5.079e-07      0.6041095890410959 
5.104e-07      0.5976853564897657 
5.129e-07      0.5900195694716243 
5.154e-07      0.582714795785673 
5.178999999999999e-07 0.5741682974559688 
5.204e-07      0.5659611555011791 
5.229e-07      0.5565557729941292 
5.254e-07      0.5477495107632094 
5.279e-07      0.540430797414397 
5.304e-07      0.53013698630137 
5.329e-07      0.5195694716242661 
5.354e-07      0.5121997644172619 
5.379e-07      0.5011102224405901 
5.403999999999999e-07 0.4913894324853229 
5.429e-07      0.4840222227749743 
5.454e-07      0.472550266914877 
5.479e-07      0.4632093933463797 
5.504e-07      0.4540608565866895 
5.529e-07      0.4420743639921722 
5.554e-07      0.4315068493150685 
5.579e-07      0.4242129904497659 
5.604e-07      0.412133072407045 
5.628999999999999e-07 0.4033268101761253 
5.654e-07      0.391697347342355 
5.679e-07      0.3854723602904938 
5.704e-07      0.375146771037182 
5.728999999999999e-07 0.3679016594685722 
5.754e-07      0.3557729941291585 
5.779e-07      0.3469667318982388 
5.804e-07      0.3395851102066382 
5.829e-07      0.3293314371572975 
5.854e-07      0.3223091976516634 
5.879e-07      0.3149989466172166 
5.904e-07      0.3064579256360078 
5.929e-07      0.2999822911476618 
5.953999999999999e-07 0.2906066536203523 
5.979e-07      0.285696587113102 
6.004e-07      0.2782778864970646 
6.029e-07      0.2717975092871358 
6.054e-07      0.265921088895177 
6.079e-07      0.2595849037717419 
6.104e-07      0.255584741489958 
6.129e-07      0.2500978473581214 
6.154e-07      0.2448140900195695 
6.178999999999999e-07 0.2423184805631337 
6.204e-07      0.236784292023905 
6.229e-07      0.2343513284974296 
6.254e-07      0.2307240704500979 
6.279e-07      0.2282160193034224 
6.304e-07      0.2263181630969035 
6.329e-07      0.223679060665362 
6.354e-07      0.2228396531667308 
6.379e-07      0.2219178082191781 
6.404e-07      0.2203109311290458 
6.429e-07      0.2201565557729941 
6.454e-07      0.2201565557729941 
6.479e-07      0.2217835916120438 
6.503999999999999e-07 0.2219178082191781 
6.529e-07      0.225440313111546 
6.554e-07      0.2263000807558871 
6.579e-07      0.2288580352712228 
6.604e-07      0.2298126341228372 
6.629e-07      0.2342465753424658 
6.654e-07      0.2367366455247733 
6.679e-07      0.2431641689024804 
6.704e-07      0.2465753424657534 
6.728999999999999e-07 0.2499047878243429 
6.754e-07      0.2580619294487792 
6.779e-07      0.2620264862701461 
6.804e-07      0.2677103718199609 
6.829e-07      0.2709745750073191 
6.854e-07      0.2794585611724165 
6.879e-07      0.2870841487279844 
6.904e-07      0.2935673530373856 
6.929e-07      0.301174168297456 
6.953999999999999e-07 0.3075594832322966 
6.979e-07      0.3171863074008515 
7.004e-07      0.3258317025440313 
7.029e-07      0.332348018503496 
7.054e-07      0.3416829745596869 
7.079e-07      0.3489919194660613 
7.104e-07      0.3592954990215264 
7.129e-07      0.3691754416722519 
7.154e-07      0.3771624220530511 
7.179e-07      0.3874755381604696 
7.204e-07      0.3980430528375734 
7.229e-07      0.4053456846983893 
7.254e-07      0.4174168297455969 
7.278999999999999e-07 0.4262230919765166 
7.304e-07      0.4367906066536204 
7.329e-07      0.444152349296451 
7.354e-07      0.4561643835616438 
7.379e-07      0.4667318982387476 
7.404e-07      0.4749235252500834 
7.429e-07      0.4861056751467711 
7.454e-07      0.4949119373776908 
7.479e-07      0.5038751101549879 
7.503999999999999e-07 0.5162529961875448 
7.529e-07      0.5248532289628179 
7.554e-07      0.5321718892192873 
7.579e-07      0.5426027055038816 
7.604e-07      0.5512720156555773 
7.629e-07      0.5594016306134995 
7.654e-07      0.5688845401174168 
7.679e-07      0.5776908023483366 
7.704e-07      0.5841597883052581 
7.729e-07      0.5926145129149446 
7.754e-07      0.6000191525487008 
7.779e-07      0.6076320939334638 
7.804e-07      0.6141095316609652 
7.828999999999999e-07 0.6217221135029354 
7.854e-07      0.6270058708414874 
7.879e-07      0.6340508806262231 
7.904e-07      0.6373410392106321 
7.929e-07      0.6446183953033269 
7.954e-07      0.6499021526418787 
7.979e-07      0.6551859099804306 
8.004e-07      0.657643016566409 
8.029e-07      0.6622309197651665 
8.053999999999999e-07 0.6646967083712522 
8.079e-07      0.6692759295499021 
8.104e-07      0.6701028279947826 
8.129e-07      0.6735241534712496 
8.154e-07      0.676320939334638 
8.179e-07      0.6771855851890973 
8.204e-07      0.678082191780822 
8.229e-07      0.6797195972683923 
8.254e-07      0.6798434442270059 
8.278999999999999e-07 0.6798434442270059 
8.304e-07      0.6782118926251168 
8.329e-07      0.678082191780822 
8.354e-07      0.6772347144330897 
8.379e-07      0.674559686888454 
8.404e-07      0.6721187994385588 
8.429e-07      0.6701994219840873 
8.454e-07      0.6657534246575342 
8.479e-07      0.6632948303348294 
8.504e-07      0.6587084148727985 
8.529e-07      0.6534246575342466 
8.554e-07      0.6509523886111844 
8.579e-07      0.6446183953033269 
8.603999999999999e-07 0.639334637964775 
8.629e-07      0.6361079188035449 
8.654e-07      0.6270058708414874 
8.679e-07      0.6205097751324001 
8.704e-07      0.6137347318301756 
8.729e-07      0.6082309175714167 
8.754e-07      0.598825831702544 
8.779e-07      0.5923475901773573 
8.804e-07      0.5847358121330725 
8.828999999999999e-07 0.5759295499021526 
8.854e-07      0.5685447594140258 
8.879e-07      0.5583170254403131 
8.904e-07      0.5510309484383413 
8.929e-07      0.5424657534246575 
8.954e-07      0.5318982387475538 
8.979e-07      0.5238023537064065 
9.004e-07      0.5142857142857143 
9.029e-07      0.502664755758768 
9.054e-07      0.4956061024847254 
9.079e-07      0.4843444227005871 
9.104e-07      0.4764624336444355 
9.129e-07      0.4665109325896077 
9.154e-07      0.4561643835616438 
9.179e-07      0.4455968688845401 
9.204e-07      0.4350293542074364 
9.229e-07      0.4277289771374458 
9.254e-07      0.416210080597507 
9.279e-07      0.4050880626223092 
9.304e-07      0.3969604924979431 
9.329e-07      0.3846137813495002 
9.354e-07      0.3769080234833659 
9.378999999999999e-07 0.368798280852426 
9.404e-07      0.3602234068762353 
9.429e-07      0.3504892367906066 
9.454e-07      0.3430994238925903 
9.479e-07      0.3328767123287671 
9.504e-07      0.325584402515283 
9.529e-07      0.3170254403131115 
9.554e-07      0.3082191780821918 
9.579e-07      0.3017545397089145 
9.604000000000002e-07 0.2941291585127202 
9.629000000000001e-07 0.2876256512805531 
9.654000000000001e-07 0.2800391389432485 
9.679000000000001e-07 0.273594177380814 
9.704000000000001e-07 0.2697031273023028 
9.729e-07      0.2606653620352251 
9.754e-07      0.2553816046966732 
9.779e-07      0.2500978473581214 
9.804e-07      0.2476331911630586 
9.828999999999999e-07 0.2412915851272016 
9.853999999999999e-07 0.2377690802348336 
9.879000000000001e-07 0.2352750097727455 
9.904000000000001e-07 0.2307240704500979 
9.929000000000001e-07 0.2298589975909591 
9.954e-07      0.2264198360375077 
9.979e-07      0.225440313111546 
1.0004e-06     0.2219178082191781 
1.0029e-06     0.2219178082191781 
1.0054e-06     0.220315031452741 
1.0079e-06     0.2201565557729941 
1.0104e-06     0.2201565557729941 
1.0129e-06     0.2217769484776165 
1.0154e-06     0.2219178082191781 
1.0179e-06     0.2227594453944092 
1.0204e-06     0.225440313111546 
1.0229e-06     0.2262930871093252 
1.0254e-06     0.2297241076353851 
1.0279e-06     0.2342465753424658 
1.0304e-06     0.2367552518900773 
1.0329e-06     0.2412915851272016 
1.0354e-06     0.2437729681679316 
1.0379e-06     0.2500978473581214 
1.0404e-06     0.2553816046966732 
1.0429e-06     0.2606653620352251 
1.0454e-06     0.2639846978974003 
1.0479e-06     0.2714799498046691 
1.0504e-06     0.2777477744021704 
1.0529e-06     0.2853228962818004 
1.0554e-06     0.2918357041334836 
1.0579e-06     0.299412915851272 
1.0604e-06     0.3059136778126084 
1.0629e-06     0.3143369738030873 
1.0654e-06     0.3217126290212467 
1.0679e-06     0.3311154598825832 
1.0704e-06     0.339921722113503 
1.0729e-06     0.3480729999941516 
1.0754e-06     0.3575342465753425 
1.0779e-06     0.3663405088062623 
1.0804e-06     0.3736642051456727 
1.0829e-06     0.3857142857142857 
1.0854e-06     0.3964762113524651 
1.0879e-06     0.4018543538942065 
1.0904e-06     0.413894324853229 
1.0929e-06     0.4244618395303327 
1.0954e-06     0.4325820892885444 
1.0979e-06     0.4438356164383562 
1.1004e-06     0.452641878669276 
1.1029e-06     0.4616858666203746 
1.1054e-06     0.4737769080234834 
1.1079e-06     0.4825831702544031 
1.1104e-06     0.4931506849315068 
1.1129e-06     0.5005042273093047 
1.1154e-06     0.5125244618395304 
1.1179e-06     0.5213307240704501 
1.1204e-06     0.5286637353213431 
1.1229e-06     0.5389432485322897 
1.1254e-06     0.5495107632093934 
1.1279e-06     0.556808670952021 
1.1304e-06     0.565362035225049 
1.1329e-06     0.5735277359085854 
1.1354e-06     0.5829745596868885 
1.1379e-06     0.5894052887658472 
1.1404e-06     0.5990136274989282 
1.1429e-06     0.6058708414872799 
1.1454e-06     0.612296519908106 
1.1479e-06     0.6199608610567515 
1.1504e-06     0.6232492111056758 
1.1529e-06     0.6317154882239632 
1.1554e-06     0.6377134415028601 
1.1579e-06     0.6424480995330316 
1.1604e-06     0.6490599575102566 
1.1629e-06     0.6514408148323718 
1.1654e-06     0.6569471624266144 
1.1679e-06     0.6622309197651665 
1.1704e-06     0.6646728608963945 
1.1729e-06     0.66658044089381 
1.1754e-06     0.6710371819960862 
1.1779e-06     0.6726868529561638 
1.1804e-06     0.6736449799232869 
1.1829e-06     0.678082191780822 
1.1854e-06     0.678082191780822 
1.1879e-06     0.679717447842469 
1.1904e-06     0.6798434442270059 
1.1929e-06     0.6798434442270059 
1.1954e-06     0.6782187674628201 
1.1979e-06     0.678082191780822 
1.2004e-06     0.6772144394886567 
1.2029e-06     0.674559686888454 
1.2054e-06     0.6737266651349677 
1.2079e-06     0.6703385884175226 
1.2104e-06     0.6657534246575342 
1.2129e-06     0.6641230920509295 
1.2154e-06     0.6594859060015026 
1.2179e-06     0.656258775625477 
1.2204e-06     0.6516634050880626 
1.2229e-06     0.6454440912775401 
1.2254e-06     0.6431319233212466 
1.2279e-06     0.6346435972730722 
1.2304e-06     0.6287514153486139 
1.2329e-06     0.6238604378840623 
1.2354e-06     0.6164383561643836 
1.2379e-06     0.6099829923218144 
1.2404e-06     0.6023483365949119 
1.2429e-06     0.5942651807773983 
1.2454e-06     0.5864970645792563 
1.2479e-06     0.5791785540867178 
1.2504e-06     0.5706457925636008 
1.2529e-06     0.5617144430921497 
1.2554e-06     0.5545387363531536 
1.2579e-06     0.5442270058708415 
1.2604e-06     0.5369571931655672 
1.2629e-06     0.5248532289628179 
1.2654e-06     0.5160469667318982 
1.2679e-06     0.5086663079636575 
1.2704e-06     0.4956268401481015 
1.2729e-06     0.487866927592955 
1.2754e-06     0.4772994129158513 
1.2779e-06     0.4699154835816813 
1.2804e-06     0.4579256360078278 
1.2829e-06     0.4473581213307241 
1.2854e-06     0.4392649208963477 
1.2879e-06     0.4279843444227006 
1.2904e-06     0.4183617253570587 
1.2929e-06     0.4101394847170181 
1.2954e-06     0.3998043052837574 
1.2979e-06     0.3892367906066536 
1.3004e-06     0.3819968862831808 
1.3029e-06     0.3698630136986301 
1.3054e-06     0.3610567514677104 
1.3079e-06     0.3537404596555622 
1.3104e-06     0.3434442270058709 
1.3129e-06     0.3346379647749511 
1.3154e-06     0.3281667685311363 
1.3179e-06     0.3187866927592955 
1.3204e-06     0.3114685202766685 
1.3229e-06     0.3029354207436399 
1.3254e-06     0.2964977691070177 
1.3279e-06     0.2888454011741683 
1.3304e-06     0.2823251722224339 
1.3329e-06     0.2747553816046967 
1.3354e-06     0.2694716242661448 
1.3379e-06     0.262426614481409 
1.3404e-06     0.2575644287845337 
1.3429e-06     0.2509425095892285 
1.3454e-06     0.2493811399123674 
1.3479e-06     0.2434537644245405 
1.3504e-06     0.2405662191315997 
1.3529e-06     0.2360078277886497 
1.3554e-06     0.2335119635613453 
1.3579e-06     0.2289628180039139 
1.3604e-06     0.2273045288480088 
1.3629e-06     0.2263149754510168 
1.3654e-06     0.223679060665362 
1.3679e-06     0.2228385402449793 
1.3704e-06     0.2203280525611324 
1.3729e-06     0.2201565557729941 
1.3754e-06     0.2201565557729941 
1.3779e-06     0.2217693150135221 
1.3804e-06     0.2219178082191781 
1.3829e-06     0.2227588579318779 
1.3854e-06     0.225440313111546 
1.3879e-06     0.2263187096619477 
1.3904e-06     0.2297338825059544 
1.3929e-06     0.2324853228962818 
1.3954e-06     0.2349862404184724 
1.3979e-06     0.2395303326810176 
1.4004e-06     0.2428622334990384 
1.4029e-06     0.2483365949119374 
1.4054e-06     0.2545216579775638 
1.4079e-06     0.2569566098983834 
1.4104e-06     0.2641878669275929 
1.4129e-06     0.2712328767123288 
1.4154e-06     0.2761194984326234 
1.4179e-06     0.2835616438356164 
1.4204e-06     0.2900726523842947 
1.4229e-06     0.297651663405088 
1.4254e-06     0.3041398414885966 
1.4279e-06     0.3117416829745597 
1.4304e-06     0.3198571350944783 
1.4329e-06     0.3293542074363993 
1.4354e-06     0.3358569737284248 
1.4379e-06     0.3471756967511729 
