
time (s)       VT("/out") (V)


2.81e-08       0.5477495107632094 
3.06e-08       0.5565557729941292 
3.31e-08       0.564814146941063 
3.56e-08       0.5724070450097848 
3.81e-08       0.5812133072407045 
4.06e-08       0.5900195694716243 
4.31e-08       0.5970645792563601 
4.56e-08       0.6041095890410959 
4.81e-08       0.6111545988258317 
5.06e-08       0.6181996086105676 
5.31e-08       0.6252446183953033 
5.56e-08       0.6305283757338551 
5.81e-08       0.637573385518591 
6.06e-08       0.6428571428571429 
6.31e-08       0.6487062274286045 
6.560000000000001e-08 0.6513163305153133 
6.810000000000001e-08 0.6569471624266144 
7.060000000000001e-08 0.6601042271670655 
7.31e-08       0.6639921722113503 
7.56e-08       0.66715886884969 
7.809999999999999e-08 0.6710371819960862 
8.059999999999999e-08 0.6727984344422701 
8.31e-08       0.6740012890470438 
8.56e-08       0.676320939334638 
8.81e-08       0.6775426560505498 
9.06e-08       0.6798434442270059 
9.310000000000001e-08 0.6798434442270059 
9.560000000000001e-08 0.6798434442270059 
9.810000000000001e-08 0.678082191780822 
1.006e-07      0.678082191780822 
1.031e-07      0.676863223706366 
1.056e-07      0.674559686888454 
1.081e-07      0.673369782451462 
1.106e-07      0.6696330282076031 
1.131e-07      0.6675146771037183 
1.156e-07      0.66435254470487 
1.181e-07      0.6604696673189824 
1.206e-07      0.6561388899987317 
1.231e-07      0.6516634050880626 
1.256e-07      0.6458070190468415 
1.281e-07      0.6420477591076919 
1.306e-07      0.6358121330724071 
1.331e-07      0.6287671232876713 
1.356e-07      0.6234833659491195 
1.381e-07      0.6164383561643836 
1.406e-07      0.6093933463796478 
1.431e-07      0.6023483365949119 
1.456e-07      0.5953033268101761 
1.481e-07      0.5882583170254404 
1.506e-07      0.5794520547945206 
1.531e-07      0.5706457925636008 
1.556e-07      0.5636007827788649 
1.581e-07      0.5547945205479452 
1.606e-07      0.5459882583170255 
1.631e-07      0.5354207436399218 
1.656e-07      0.526614481409002 
1.681e-07      0.5178082191780823 
1.706e-07      0.5090019569471624 
1.731e-07      0.4980899779203687 
1.756e-07      0.489628180039139 
1.781e-07      0.4790606653620352 
1.806e-07      0.4702544031311155 
1.831e-07      0.4596868884540117 
1.856e-07      0.449119373776908 
1.881e-07      0.4403131115459882 
1.906e-07      0.4297455968688845 
1.931e-07      0.4191780821917809 
1.956e-07      0.4103718199608611 
1.981e-07      0.3998043052837574 
2.006e-07      0.3915790093448241 
2.031e-07      0.3821917808219178 
2.056e-07      0.3716242661448141 
2.081e-07      0.3633967998806458 
2.106e-07      0.3540117416829746 
2.131e-07      0.3452054794520548 
2.156e-07      0.336399217221135 
2.181e-07      0.3275929549902153 
2.206e-07      0.3187866927592955 
2.231e-07      0.3117416829745597 
2.256e-07      0.3046966731898239 
2.281e-07      0.2958904109589041 
2.306e-07      0.2888454011741683 
2.331e-07      0.2818003913894325 
2.356e-07      0.2759416775897555 
2.381e-07      0.2694716242661448 
2.406e-07      0.2644502119779165 
2.431e-07      0.2589041095890411 
2.456e-07      0.2545020573764266 
2.481e-07      0.2477754459415474 
2.506e-07      0.2430528375733855 
2.531e-07      0.2398510075471878 
2.556e-07      0.2360078277886497 
2.581e-07      0.2328000343668284 
2.606e-07      0.2289628180039139 
2.631e-07      0.22720156555773 
2.656e-07      0.225962640099737 
2.681e-07      0.223679060665362 
2.706e-07      0.2224856427111625 
2.731e-07      0.2219178082191781 
2.756e-07      0.2201565557729941 
2.781e-07      0.2201565557729941 
2.806e-07      0.2219178082191781 
2.831e-07      0.2219178082191781 
2.856e-07      0.2231081837449424 
2.881e-07      0.225440313111546 
2.906e-07      0.2266713195704493 
2.931e-07      0.2289628180039139 
2.956e-07      0.2324853228962818 
2.981e-07      0.2356816933846552 
3.006e-07      0.2395303326810176 
3.031e-07      0.2427332691681865 
3.056e-07      0.2483365949119374 
3.081e-07      0.2541774241783244 
3.106e-07      0.2568183598631268 
3.131e-07      0.2641878669275929 
3.156e-07      0.2692482738280782 
3.181e-07      0.2765166340508807 
3.206e-07      0.2823522501904501 
3.231e-07      0.2888454011741683 
3.256e-07      0.2958904109589041 
3.281e-07      0.3029354207436399 
3.306e-07      0.3111772392498557 
3.331e-07      0.3187866927592955 
3.356e-07      0.3275929549902153 
3.381e-07      0.336399217221135 
3.406e-07      0.3461109929755855 
3.431e-07      0.3540117416829746 
3.456e-07      0.3628180039138943 
3.481e-07      0.3710523857480652 
3.506e-07      0.3804305283757339 
3.531e-07      0.3909980430528376 
3.556e-07      0.3992352729796338 
3.581e-07      0.4103718199608611 
3.606e-07      0.4191780821917809 
3.631e-07      0.4297455968688845 
3.656e-07      0.4385518590998043 
3.681e-07      0.449119373776908 
3.706e-07      0.4596868884540117 
3.731e-07      0.4684931506849315 
3.756e-07      0.4790606653620352 
3.781e-07      0.487866927592955 
3.806e-07      0.4984344422700587 
3.831e-07      0.5081136950749203 
3.856e-07      0.5178082191780823 
3.881e-07      0.526614481409002 
3.906e-07      0.5354207436399218 
3.931e-07      0.5442270058708415 
3.956e-07      0.5530332681017613 
3.981e-07      0.5636007827788649 
4.006e-07      0.5706457925636008 
4.031e-07      0.5794520547945206 
4.056e-07      0.5864970645792563 
4.081e-07      0.5953033268101761 
4.106e-07      0.6023483365949119 
4.131e-07      0.6093933463796478 
4.156e-07      0.6164383561643836 
4.181e-07      0.6234833659491195 
4.206e-07      0.6287671232876713 
4.231e-07      0.6358121330724071 
4.256e-07      0.6410958904109589 
4.281e-07      0.6454475356486963 
4.306e-07      0.6522389787348996 
4.331e-07      0.6551859099804306 
4.356e-07      0.6595379071846305 
4.381e-07      0.6639921722113503 
4.406e-07      0.6671677274736958 
4.431e-07      0.6692759295499021 
4.456e-07      0.6724445922669186 
4.481e-07      0.6740000003798559 
4.506e-07      0.676320939334638 
4.531e-07      0.6775416319187211 
4.556e-07      0.678082191780822 
4.581e-07      0.6798434442270059 
4.606e-07      0.6798434442270059 
4.631e-07      0.6798434442270059 
4.656e-07      0.678082191780822 
4.681e-07      0.6768772613619087 
4.706e-07      0.674559686888454 
4.731e-07      0.6733732474840292 
4.756e-07      0.6710371819960862 
4.781e-07      0.6675146771037183 
4.806e-07      0.664394516137447 
4.831e-07      0.6604696673189824 
4.856000000000001e-07 0.6573213444582598 
4.881e-07      0.6534246575342466 
4.906e-07      0.6490554507160925 
4.931e-07      0.6422828361103464 
4.956000000000001e-07 0.637573385518591 
4.981e-07      0.6322896281800392 
5.006e-07      0.6252446183953033 
5.031e-07      0.6181996086105676 
5.056e-07      0.6111545988258317 
5.081000000000001e-07 0.6041095890410959 
5.106e-07      0.5970645792563601 
5.131e-07      0.5900195694716243 
5.156e-07      0.5812133072407045 
5.181e-07      0.5741682974559688 
5.206e-07      0.565362035225049 
5.231e-07      0.5565557729941292 
5.256e-07      0.5477495107632094 
5.281e-07      0.5389432485322897 
5.306000000000001e-07 0.53013698630137 
5.331e-07      0.5195694716242661 
5.356e-07      0.5107632093933464 
5.381e-07      0.5014624729298269 
5.406e-07      0.4913894324853229 
5.431e-07      0.4825831702544031 
5.456e-07      0.4720156555772995 
5.481e-07      0.4632093933463797 
5.506e-07      0.452641878669276 
5.531e-07      0.4420743639921722 
5.556e-07      0.4315068493150685 
5.581e-07      0.4227005870841487 
5.606e-07      0.412133072407045 
5.631e-07      0.4033268101761253 
5.656e-07      0.3924018483208285 
5.681e-07      0.3839530332681018 
5.706e-07      0.375146771037182 
5.731e-07      0.3663405088062623 
5.756e-07      0.3557729941291585 
5.781e-07      0.3469667318982388 
5.806e-07      0.338160469667319 
5.831e-07      0.3293542074363993 
5.856000000000001e-07 0.3223091976516634 
5.881e-07      0.3135029354207437 
5.906e-07      0.3064579256360078 
5.931e-07      0.299412915851272 
5.956e-07      0.2906066536203523 
5.981e-07      0.2853228962818004 
6.006e-07      0.2782778864970646 
6.031e-07      0.2712328767123288 
6.056e-07      0.2659491193737769 
6.081000000000001e-07 0.2589041095890411 
6.106e-07      0.2545279900222475 
6.131e-07      0.2500978473581214 
6.156e-07      0.2448140900195695 
6.181e-07      0.2416139795846601 
6.206e-07      0.2364320415346682 
6.231e-07      0.2342465753424658 
6.256e-07      0.2307240704500979 
6.281e-07      0.2275115183249488 
6.306e-07      0.2259659126076667 
6.331e-07      0.223679060665362 
6.356e-07      0.222487402677494 
6.381e-07      0.2219178082191781 
6.406000000000001e-07 0.2201565557729941 
6.431e-07      0.2201565557729941 
6.456e-07      0.2201565557729941 
6.481e-07      0.2219178082191781 
6.506e-07      0.2219178082191781 
6.531e-07      0.225440313111546 
6.556e-07      0.226652331245124 
6.581e-07      0.2289628180039139 
6.606e-07      0.230164884612074 
6.631000000000001e-07 0.2342465753424658 
6.656e-07      0.2374411465032469 
6.681e-07      0.2430528375733855 
6.706e-07      0.2465753424657534 
6.731e-07      0.2509615392920533 
6.756e-07      0.2577096789595424 
6.781e-07      0.262426614481409 
6.806e-07      0.2677103718199609 
6.831e-07      0.2720313264750296 
6.856000000000001e-07 0.2800391389432485 
6.881e-07      0.2870841487279844 
6.906e-07      0.2941291585127202 
6.931e-07      0.301174168297456 
6.956e-07      0.3082191780821918 
6.981e-07      0.3170254403131115 
7.006e-07      0.3258317025440313 
7.031e-07      0.3328767123287671 
7.056e-07      0.3416829745596869 
7.081e-07      0.3504892367906066 
7.106e-07      0.3592954990215264 
7.131e-07      0.3698630136986301 
7.156e-07      0.3786692759295499 
7.181000000000001e-07 0.3874755381604696 
7.206e-07      0.3980430528375734 
7.231e-07      0.4068493150684931 
7.256e-07      0.4174168297455969 
7.281e-07      0.4262230919765166 
7.306e-07      0.4367906066536204 
7.331e-07      0.4455968688845401 
7.356e-07      0.4561643835616438 
7.381e-07      0.4667318982387476 
7.406000000000001e-07 0.4755381604696673 
7.431e-07      0.4861056751467711 
7.456e-07      0.4949119373776908 
7.481e-07      0.5054794520547945 
7.506e-07      0.5151962447198344 
7.531e-07      0.5248532289628179 
7.556e-07      0.5336594911937378 
7.581e-07      0.5424657534246575 
7.606e-07      0.5512720156555773 
7.631000000000001e-07 0.560078277886497 
7.656e-07      0.5688845401174168 
7.681e-07      0.5776908023483366 
7.706e-07      0.5847358121330725 
7.731000000000001e-07 0.5929667634041814 
7.756e-07      0.6005870841487281 
7.781e-07      0.6076320939334638 
7.806e-07      0.6146771037181996 
7.831e-07      0.6217221135029354 
7.856e-07      0.6270058708414874 
7.881e-07      0.6340508806262231 
7.906e-07      0.6383977906783426 
7.931e-07      0.6446183953033269 
7.956000000000001e-07 0.6499021526418787 
7.981e-07      0.6551859099804306 
8.006e-07      0.6583475175448826 
8.031e-07      0.6622309197651665 
8.056e-07      0.6654012093497258 
8.081e-07      0.6692759295499021 
8.106e-07      0.6704550784840194 
8.131e-07      0.6742286544497232 
8.156e-07      0.676320939334638 
8.181000000000001e-07 0.6775378356783341 
8.206e-07      0.678082191780822 
8.231e-07      0.6798434442270059 
8.256e-07      0.6798434442270059 
8.281e-07      0.6798434442270059 
8.306e-07      0.678082191780822 
8.331e-07      0.678082191780822 
8.356e-07      0.6768824639438528 
8.381e-07      0.674559686888454 
8.406e-07      0.671414298460085 
8.431e-07      0.6698471714948504 
8.456e-07      0.6657534246575342 
8.481e-07      0.6625903293563558 
8.506000000000001e-07 0.6587084148727985 
8.531e-07      0.6534246575342466 
8.556e-07      0.6502478876327107 
8.581e-07      0.6446183953033269 
8.606e-07      0.639334637964775 
8.631e-07      0.6350511673358343 
8.656e-07      0.6270058708414874 
8.681e-07      0.6199608610567515 
8.706e-07      0.6140869823194125 
8.731000000000001e-07 0.6076320939334638 
8.756e-07      0.598825831702544 
8.781e-07      0.5917808219178082 
8.806e-07      0.5847358121330725 
8.831e-07      0.5759295499021526 
8.856e-07      0.5671232876712329 
8.881e-07      0.5583170254403131 
8.906e-07      0.5495107632093934 
8.931e-07      0.5424657534246575 
8.956000000000001e-07 0.5318982387475538 
8.981e-07      0.5230919765166341 
9.006e-07      0.5142857142857143 
9.031e-07      0.5033692567372416 
9.056000000000001e-07 0.4949119373776908 
9.081e-07      0.4843444227005871 
9.106e-07      0.4761101831551987 
9.131e-07      0.4649706457925636 
9.156e-07      0.4561643835616438 
9.181e-07      0.4455968688845401 
9.206e-07      0.4350293542074364 
9.231e-07      0.4262230919765166 
9.256e-07      0.4156555772994129 
9.281000000000001e-07 0.4050880626223092 
9.306e-07      0.3962818003913894 
9.331e-07      0.3853182823279739 
9.356e-07      0.3769080234833659 
9.381e-07      0.3681017612524461 
9.406e-07      0.3598711563869985 
9.431e-07      0.3504892367906066 
9.456e-07      0.3416829745596869 
9.481e-07      0.3328767123287671 
9.506000000000001e-07 0.3240704500978474 
9.531e-07      0.3170254403131115 
9.556e-07      0.3082191780821918 
9.581e-07      0.301174168297456 
9.606000000000002e-07 0.2941291585127202 
9.631000000000001e-07 0.2870841487279844 
9.656000000000001e-07 0.2800391389432485 
9.681000000000001e-07 0.2729941291585127 
9.706000000000001e-07 0.2686463758345924 
9.731000000000001e-07 0.2606653620352251 
9.756e-07      0.2553816046966732 
9.781e-07      0.2500978473581214 
9.806e-07      0.246928690184585 
9.831e-07      0.2412915851272016 
9.855999999999999e-07 0.2377690802348336 
9.881000000000001e-07 0.2345705087942719 
9.906000000000001e-07 0.2307240704500979 
9.931000000000001e-07 0.2295067471017223 
9.956e-07      0.2257153350590341 
9.981e-07      0.225440313111546 
1.0006e-06     0.2219178082191781 
1.0031e-06     0.2219178082191781 
1.0056e-06     0.2201565557729941 
1.0081e-06     0.2201565557729941 
1.0106e-06     0.2201565557729941 
1.0131e-06     0.2219178082191781 
1.0156e-06     0.2219178082191781 
1.0181e-06     0.223111695883646 
1.0206e-06     0.225440313111546 
1.0231e-06     0.226645337598562 
1.0256e-06     0.2304286086138587 
1.0281e-06     0.2342465753424658 
1.0306e-06     0.2374597528685509 
1.0331e-06     0.2412915851272016 
1.0356e-06     0.2444774691464052 
1.0381e-06     0.2500978473581214 
1.0406e-06     0.2553816046966732 
1.0431e-06     0.2606653620352251 
1.0456e-06     0.2650414493651107 
1.0481e-06     0.2712328767123288 
1.0506e-06     0.2782778864970646 
1.0531e-06     0.2853228962818004 
1.0556e-06     0.2923679060665362 
1.0581e-06     0.299412915851272 
1.0606e-06     0.3064579256360078 
1.0631e-06     0.314689224292324 
1.0656e-06     0.3223091976516634 
1.0681e-06     0.3311154598825832 
1.0706e-06     0.339921722113503 
1.0731e-06     0.3487279843444228 
1.0756e-06     0.3575342465753425 
1.0781e-06     0.3663405088062623 
1.0806e-06     0.375146771037182 
1.0831e-06     0.3857142857142857 
1.0856e-06     0.3954194598847546 
1.0881e-06     0.4033268101761253 
1.0906e-06     0.413894324853229 
1.0931e-06     0.4244618395303327 
1.0956e-06     0.4332681017612525 
1.0981e-06     0.4438356164383562 
1.1006e-06     0.452641878669276 
1.1031e-06     0.4632093933463797 
1.1056e-06     0.4737769080234834 
1.1081e-06     0.4825831702544031 
1.1106e-06     0.4931506849315068 
1.1131e-06     0.5019569471624267 
1.1156e-06     0.5125244618395304 
1.1181e-06     0.5213307240704501 
1.1206e-06     0.53013698630137 
1.1231e-06     0.5389432485322897 
1.1256e-06     0.5495107632093934 
1.1281e-06     0.5583170254403131 
1.1306e-06     0.565362035225049 
1.1331e-06     0.5741682974559688 
1.1356e-06     0.5829745596868885 
1.1381e-06     0.5900195694716243 
1.1406e-06     0.598825831702544 
1.1431e-06     0.6058708414872799 
1.1456e-06     0.6129158512720156 
1.1481e-06     0.6199608610567515 
1.1506e-06     0.6243059625733862 
1.1531e-06     0.6322896281800392 
1.1556e-06     0.637573385518591 
1.1581e-06     0.6428571428571429 
1.1606e-06     0.6487077070210198 
1.1631e-06     0.6524975663000823 
1.1656e-06     0.6569471624266144 
1.1681e-06     0.6622309197651665 
1.1706e-06     0.6653773618748681 
1.1731e-06     0.6669326913830469 
1.1756e-06     0.6710371819960862 
1.1781e-06     0.6727984344422701 
1.1806e-06     0.6739972304125237 
1.1831e-06     0.678082191780822 
1.1856e-06     0.678082191780822 
1.1881e-06     0.6798434442270059 
1.1906e-06     0.6798434442270059 
1.1931e-06     0.6798434442270059 
1.1956e-06     0.678082191780822 
1.1981e-06     0.678082191780822 
1.2006e-06     0.6768621889994199 
1.2031e-06     0.674559686888454 
1.2056e-06     0.6733744146457309 
1.2081e-06     0.669634087439049 
1.2106e-06     0.6657534246575342 
1.2131e-06     0.6639921722113503 
1.2156e-06     0.6591336555122658 
1.2181e-06     0.6555542746470033 
1.2206e-06     0.6516634050880626 
1.2231e-06     0.6457963417667769 
1.2256e-06     0.6420751718535362 
1.2281e-06     0.6340508806262231 
1.2306e-06     0.6287671232876713 
1.2331e-06     0.6234833659491195 
1.2356e-06     0.6164383561643836 
1.2381e-06     0.6093933463796478 
1.2406e-06     0.6023483365949119 
1.2431e-06     0.5935420743639922 
1.2456e-06     0.5864970645792563 
1.2481e-06     0.5776908023483366 
1.2506e-06     0.5706457925636008 
1.2531e-06     0.5618395303326811 
1.2556e-06     0.5530332681017613 
1.2581e-06     0.5442270058708415 
1.2606e-06     0.5354207436399218 
1.2631e-06     0.5248532289628179 
1.2656e-06     0.5160469667318982 
1.2681e-06     0.5072407045009785 
1.2706e-06     0.4963313411265751 
1.2731e-06     0.487866927592955 
1.2756e-06     0.4772994129158513 
1.2781e-06     0.4684931506849315 
1.2806e-06     0.4579256360078278 
1.2831e-06     0.4473581213307241 
1.2856e-06     0.4385518590998043 
1.2881e-06     0.4279843444227006 
1.2906e-06     0.417657224378585 
1.2931e-06     0.4086105675146771 
1.2956e-06     0.3998043052837574 
1.2981e-06     0.3892367906066536 
1.3006e-06     0.3804305283757339 
1.3031e-06     0.3698630136986301 
1.3056e-06     0.3610567514677104 
1.3081e-06     0.3522504892367906 
1.3106e-06     0.3434442270058709 
1.3131e-06     0.3346379647749511 
1.3156e-06     0.3275929549902153 
1.3181e-06     0.3187866927592955 
1.3206e-06     0.3099804305283758 
1.3231e-06     0.3029354207436399 
1.3256e-06     0.2958904109589041 
1.3281e-06     0.2888454011741683 
1.3306e-06     0.2818003913894325 
1.3331e-06     0.2747553816046967 
1.3356e-06     0.2694716242661448 
1.3381e-06     0.262426614481409 
1.3406e-06     0.2571428571428572 
1.3431e-06     0.2512947600784654 
1.3456e-06     0.2486766389338937 
1.3481e-06     0.2430528375733855 
1.3506e-06     0.2398617181531261 
1.3531e-06     0.2360078277886497 
1.3556e-06     0.2328074625828717 
1.3581e-06     0.2289628180039139 
1.3606e-06     0.22720156555773 
1.3631e-06     0.22596272496178 
1.3656e-06     0.223679060665362 
1.3681e-06     0.2224862897557424 
1.3706e-06     0.2201565557729941 
1.3731e-06     0.2201565557729941 
1.3756e-06     0.2201565557729941 
1.3781e-06     0.2219178082191781 
1.3806e-06     0.2219178082191781 
1.3831e-06     0.2231111084211148 
1.3856e-06     0.225440313111546 
1.3881e-06     0.2266709601511845 
1.3906e-06     0.230438383484428 
1.3931e-06     0.2324853228962818 
1.3956e-06     0.235690741396946 
1.3981e-06     0.2395303326810176 
1.4006e-06     0.2439189849667489 
1.4031e-06     0.2483365949119374 
1.4056e-06     0.2541694074883269 
1.4081e-06     0.2580133613660938 
1.4106e-06     0.2641878669275929 
1.4131e-06     0.2712328767123288 
1.4156e-06     0.2765166340508807 
1.4181e-06     0.2835616438356164 
1.4206e-06     0.2906066536203523 
1.4231e-06     0.297651663405088 
1.4256e-06     0.3046966731898239 
1.4281e-06     0.3117416829745597 
1.4306e-06     0.3205479452054795 
1.4331e-06     0.3293542074363993 
1.4356e-06     0.336399217221135 
1.4381e-06     0.3461189452834624 
