
time (s)       VT("/VIP") - V VT("/VOUTP") - VT("/VOUTP") ( VT("/VOUTN") (


2.82e-08       0.3719991408656989 0.334325879306838 0.546569604359307 0.212243725052469
3.07e-08       0.4020670108685053 0.3607538077429143 0.5592642033650813 0.198510395622167
3.32e-08       0.4313932677857552 0.3867063649922344 0.5715645221724017 0.1848581571801673
3.57e-08       0.4599238018563411 0.411848693318599 0.583430428142113 0.1715817348235139
3.82e-08       0.4876059863644344 0.436147966942134 0.5948495892484473 0.1587016223063133
4.07e-08       0.5143887549092084 0.4595163607952018 0.6058137521646236 0.1462973913694219
4.32e-08       0.5402227007131953 0.4819373906133689 0.6163185718903164 0.1343811812769475
4.570000000000001e-08 0.5650601902013793 0.5034217310857632 0.6263506162352248 0.1229288851494616
4.82e-08       0.5888554010680408 0.5239497279844924 0.6359073378057085 0.1119576098212162
5.07e-08       0.6115644422785615 0.543494678132049 0.644983498471366 0.1014888203393171
5.32e-08       0.6331454288167535 0.562027051283877 0.6535738315123698 0.09154678022849289
5.57e-08       0.653558558742818 0.5795328065949106 0.6616705516719129 0.08213774507700235
5.82e-08       0.6727661799748864 0.5959854546110102 0.6692690922524003 0.07328363764139002
6.070000000000001e-08 0.6907328636914321 0.611360658061345 0.6763633314797163 0.06500267341837125
6.320000000000001e-08 0.7074255080814936 0.625632384554436 0.6829446689347342 0.05731228438029805
6.57e-08       0.7228131773071065 0.638792429023629 0.6890089946166761 0.05021656559304708
6.82e-08       0.7368675795497354 0.6508159292674617 0.6945459506342369 0.04373002136677517
7.07e-08       0.7495628186081931 0.6616867373035275 0.6995477920904734 0.03786105478694589
7.319999999999999e-08 0.7608754540658874 0.6713813251739613 0.704008327914126 0.0326270027401647
7.57e-08       0.7707846320699761 0.6798797902913114 0.7079201885987232 0.02804039830741186
7.82e-08       0.7792720816824248 0.6871687049485539 0.7112767577384802 0.02410805278992637
8.07e-08       0.7863221260752989 0.6932410168178751 0.7140725420658141 0.02083152524793897
8.32e-08       0.7919217592514769 0.6980844352796036 0.7163025971927705 0.01821816191316677
8.570000000000001e-08 0.7960606538242326 0.7016894488765778 0.7179627677018258 0.01627331882524798
8.820000000000001e-08 0.7987311762719905 0.7040492118750352 0.7190499964719332 0.01500078459689801
9.07e-08       0.7999284008115806 0.7051591368235511 0.7195622570347037 0.01440312021115253
9.32e-08       0.7996501196107867 0.7050173694475433 0.7194985569015215 0.01448118745397818
9.57e-08       0.7978968432347534 0.7036232873450673 0.718859125517001 0.01523583817193382
9.820000000000001e-08 0.7946718056551723 0.700979594697794 0.7176451653913741 0.01666557069358006
1.007e-07      0.7899809545916825 0.6970914601581233 0.7158589405314268 0.01876748037330359
1.032e-07      0.7838329412330535 0.6919666610922816 0.7135037309737511 0.0215370698814695
1.057e-07      0.7762391106337384 0.6856161678537646 0.7105837281876192 0.02496756033385455
1.082e-07      0.7672134779169808 0.6780512962782871 0.707103474004141 0.02905217772585392
1.107e-07      0.756772704157695 0.6692748665343076 0.7030698203286865 0.03379495379437897
1.132e-07      0.7449360271018834 0.6593098026221076 0.698489236259113 0.03917943363700534
1.157e-07      0.7317252785721405 0.6481740058098718 0.6933690844043148 0.0451950785944429
1.182e-07      0.7171648527285304 0.6358904685378394 0.6877152449593118 0.05182477642147252
1.207e-07      0.7012815853737807 0.622474528053646 0.6815365092083322 0.05906198115468616
1.232e-07      0.6841047851690389 0.6079452890073459 0.6748393340942299 0.06689404508688394
1.257e-07      0.6656661110557245 0.5923246968108178 0.6676329813394388 0.07530828452862096
1.282e-07      0.6459995883943833 0.5756363521536305 0.6599239594627483 0.08428760730911773
1.307e-07      0.6251414918444476 0.5579063582257109 0.6517177642600166 0.0938114060343057
1.332e-07      0.6031302563915993 0.5391419197946467 0.6430188604043527 0.103876940609706
1.357e-07      0.5800065118001627 0.5193778089510854 0.6338373116529742 0.1144595027018887
1.382e-07      0.5558129257107566 0.4986331618829148 0.6241764085872901 0.1255432467043753
1.407e-07      0.5305941241453285 0.476932051387399 0.6140431999453903 0.1371111485579913
1.432e-07      0.5043966329860486 0.454295342507687 0.6034416671962194 0.1491463246885323
1.457e-07      0.4772687838834359 0.4307491438292341 0.5923757074805157 0.1616265636512816
1.482e-07      0.4492606210279379 0.4063345897645415 0.5808556849049563 0.1745210951404148
1.507e-07      0.4204236796603286 0.3810957593265255 0.5688952633260363 0.1877995039995109
1.532e-07      0.390811258549297 0.3550468253445287 0.5564979702153438 0.201451144870815
1.557e-07      0.3604779990693674 0.3281919014291058 0.5436666243398369 0.2154747229107311
1.582e-07      0.3294798149810843 0.3005367859088776 0.5304697135381878 0.2299329276293103
1.607e-07      0.2978739033509664 0.2722960405936086 0.5168549659745457 0.2445589253809372
1.632e-07      0.2657185510287355 0.2434477469020583 0.5028820947528408 0.2594343478507825
1.657e-07      0.2330730837403522 0.2145099283653624 0.4886784877356264 0.2741685593702641
1.682e-07      0.1999977123347164 0.1846601809126652 0.4741103244058781 0.2894501434932129
1.707e-07      0.1665533781964148 0.1541664152593206 0.4593092608054097 0.3051428455460892
1.732e-07      0.1328018611141628 0.1235236479058029 0.4442539394301089 0.3207302915243059
1.757e-07      0.09880538603403079 0.09254281574540872 0.4289930765831236 0.3364502608377148
1.782e-07      0.06462666050040199 0.06134412596140554 0.4135697990141581 0.3522256730527525
1.807e-07      0.03032872845405858 0.03003414188930179 0.3980214298873464 0.3679872879980446
1.832e-07      -0.004025147733622733 -0.001300022732141924 0.3821502746813247 0.3834502974134666
1.857e-07      -0.03837159928295346 -0.03262837969926502 0.3666811786096659 0.3993095583089309
1.882e-07      -0.07264727125123868 -0.0639324088506045 0.3509133627408503 0.4148457715914548
1.907e-07      -0.106788942459718 -0.09511712115560186 0.3351367871545653 0.4302539083101672
1.932e-07      -0.1407336371877696 -0.1260744560626869 0.3194219336045232 0.4454963896672101
1.957e-07      -0.1744187593921636 -0.1568664289408251 0.3036526062879286 0.4605190352287538
1.982e-07      -0.2077821627704345 -0.1871507005512653 0.2881589972877952 0.4753096978390605
2.007e-07      -0.2407622504493954 -0.2169562764023349 0.2728943756580553 0.4898506520603902
2.032e-07      -0.2732982584812598 -0.2458566890135906 0.2581711748989238 0.5040278639125145
2.057e-07      -0.3053301692781636 -0.2746581912976468 0.2433125678981646 0.5179707591958115
2.082e-07      -0.3367988856767493 -0.3028459157918851 0.2287067656809823 0.5315526814728674
2.107e-07      -0.3676463746545439 -0.3304442983157866 0.2142712405178101 0.5447155388335967
2.132e-07      -0.3978157178393918 -0.3572367693943608 0.2002739879228118 0.5575107573171725
2.157e-07      -0.4272513036110484 -0.3832179655455308 0.1866527366642821 0.569870702209813
2.182e-07      -0.4558988032952401 -0.4083904450873179 0.173403647650535 0.5817940927378529
2.207e-07      -0.4837052932776409 -0.4327352938222867 0.1605407868339598 0.5932760806562465
2.232e-07      -0.5106195950665443 -0.4562084969849519 0.1480952923578495 0.6043037893428014
2.257e-07      -0.5365920627213105 -0.4787678155227926 0.1360975691967629 0.6148653847195555
2.282e-07      -0.5615747725203915 -0.5003930668957202 0.1245682766368201 0.6249613435325403
2.307e-07      -0.585521640587333 -0.5210577249817319 0.1135252002788631 0.6345829252605949
2.332e-07      -0.6083884945266934 -0.5407403012964462 0.1029847872888525 0.6437250885852988
2.357e-07      -0.6301331345734694 -0.5594209711944148 0.0929635137242126 0.6523844849186274
2.382e-07      -0.6507154328882466 -0.5770658221694039 0.08348500250606943 0.6605508246754733
2.407e-07      -0.6700974596686254 -0.5936669554676409 0.0745527227245211 0.668219678192162
2.432e-07      -0.6882434630524547 -0.6091982902156668 0.06618724280100627 0.6753855330166731
2.457e-07      -0.7051199587260905 -0.623636210104631 0.05840557544808651 0.6820417855527175
2.482e-07      -0.7206958420650899 -0.6369589960151377 0.05121992713242585 0.6881789231475636
2.507e-07      -0.7349423724415163 -0.6491478642814421 0.04464288027545035 0.6937907445568924
2.532e-07      -0.7478332889824646 -0.6601870170194241 0.03868147205309556 0.6988684890725195
2.557e-07      -0.7593447903265732 -0.6700537559017155 0.03335237151266444 0.7034061274143799
2.582e-07      -0.7694556439318923 -0.678730354062741 0.02866604127468663 0.7073963953374275
2.607e-07      -0.7781472232227247 -0.6861936457599161 0.02463917171012449 0.7108328174700406
2.632e-07      -0.785403478246113 -0.6924423028034672 0.02126635840221052 0.7137086612056777
2.657e-07      -0.7912110187701106 -0.6974641688011304 0.01855523994246618 0.7160194087435965
2.682e-07      -0.7955591281268958 -0.7012485508292751 0.01651236918938252 0.7177609200186577
2.707e-07      -0.7984397873769167 -0.7037878839049572 0.0151420642699686 0.7189299481749257
2.732e-07      -0.7998476839175495 -0.705077239775548 0.01444708923319861 0.7195243290087466
2.757e-07      -0.7997802212453732 -0.7051142932615658 0.01442863161044647 0.7195429248720123
2.782e-07      -0.7982375239647145 -0.70389903914427 0.01508664847741789 0.7189856876216879
2.807e-07      -0.7952224370516396 -0.7014336048720496 0.01642008412676732 0.717853688998817
2.832e-07      -0.790740521158195 -0.697722839594944 0.01842619847505437 0.7161490380699984
2.857e-07      -0.7848000420739131 -0.6927741108808603 0.02110076253235424 0.7138748734132145
2.882e-07      -0.7774119611896907 -0.6865979128036475 0.02443734815588052 0.711035260959528
2.907e-07      -0.7685899103252971 -0.6792070863744424 0.02842758482158359 0.707634671196026
2.932e-07      -0.7583501839614989 -0.6706017974652881 0.03307790347131709 0.7036797009366051
2.957e-07      -0.7467116444931495 -0.6608055028544814 0.03837133929010576 0.6991768421445871
2.982e-07      -0.7336957588697303 -0.6498357498088368 0.04429752896233605 0.6941332787711729
3.007e-07      -0.7193265569891034 -0.6377151094435908 0.05084011759081081 0.6885552270344016
3.032e-07      -0.7036305292044978 -0.6244598115210305 0.05799139094800866 0.6824512024690391
3.057e-07      -0.6866366366192801 -0.6100883002533497 0.06573908651906309 0.6758273867724128
3.082e-07      -0.6683762005515281 -0.5946221291068893 0.074071225148422 0.6686933542553113
3.107e-07      -0.6488829148186462 -0.5780849085809678 0.08297088967249203 0.6610557982534598
3.132e-07      -0.6281927384942707 -0.5605030310105861 0.09241731406523719 0.6529203450758233
3.157e-07      -0.6063438024797528 -0.5418841619124209 0.1024069004728193 0.6442910623852403
3.182e-07      -0.5833764208967945 -0.5222617830018425 0.1129166681221431 0.6351784511239855
3.207e-07      -0.5593329824510631 -0.5016559634367305 0.1239297499763953 0.6255857134131257
3.232e-07      -0.534257836817817 -0.4800883923072115 0.1354298181050946 0.615518210412306
3.257e-07      -0.5081972383946326 -0.45758568313483 0.1473989386776414 0.6049846218124714
3.282e-07      -0.481199273659446 -0.4341670881851165 0.159817363597466 0.5939844517825825
3.307e-07      -0.4533137413201913 -0.4098737628972418 0.1726551515932773 0.582528914490519
3.332e-07      -0.4245919786696011 -0.3847504080516336 0.1858803183736425 0.5706307264252761
3.357e-07      -0.3950870268715621 -0.3588184228636959 0.1994772083355493 0.5582956311992451
3.382e-07      -0.3648533493623894 -0.332073828182885 0.2134512608746904 0.5455250890575754
3.407e-07      -0.3339466799593369 -0.3045180560057876 0.2278658099210668 0.5323838659268545
3.432e-07      -0.3024240441000545 -0.2763691398514538 0.242453476318968 0.5188226161704219
3.457e-07      -0.2703435740934535 -0.2476021601138224 0.2572959924655163 0.5048981525793386
3.482e-07      -0.2377644557176555 -0.2187298249856229 0.2720059472038445 0.4907357721894675
3.507e-07      -0.2047467914107832 -0.1889572521554342 0.2872531031350058 0.47621035529044
3.532e-07      -0.1713514061616174 -0.1586996086635276 0.3027303322149712 0.4614299408784989
3.557e-07      -0.1376399612870767 -0.1279252046297883 0.3184936086878347 0.446418813317623
3.582e-07      -0.103674650319021 -0.09698469213657845 0.3341993988589549 0.4311840909955334
3.607e-07      -0.06951810727837031 -0.06581015348004342 0.349971565000758 0.4157817184808015
3.632e-07      -0.03523333530314384 -0.03451051454173952 0.3657380716900046 0.4002485862317441
3.657e-07      -0.0008835726026484602 -0.003188157547156809 0.3812030403112591 0.3843911978584159
3.682e-07      0.03346782014503513 0.02815225426292865 0.3970818577084067 0.3689296034454781
3.707e-07      0.06775747835555042 0.05946546413905991 0.4126332429153665 0.3531677787763066
3.732e-07      0.1019221551750829 0.09067338358172231 0.4280619221227234 0.3373885385410011
3.757e-07      0.135898832566834 0.1216704426837633 0.4433306614852258 0.3216602188014625
3.782e-07      0.1696248394676676 0.1523373832854275 0.4583966678306433 0.3060592845452158
3.807e-07      0.2030379964828458 0.1828495524221612 0.4732077313278217 0.2903581789056605
3.832e-07      0.2360765878107255 0.2127310670025992 0.4877911917242985 0.2750601247216993
3.857e-07      0.268679729518962 0.2416978256261701 0.5020093373249761 0.260311511698806
3.882e-07      0.300787295962732 0.2705791538849729 0.5160003063685098 0.245421152483537
3.907e-07      0.3323400480035889 0.2988588512278144 0.5296354739807512 0.2307766227529367
3.932e-07      0.3632797967985365 0.3265559407517303 0.5428537380368993 0.216297797285169
3.957e-07      0.3935494518598622 0.3534566656609726 0.5557089058049659 0.2022522401439933
3.982e-07      0.4230932178744514 0.3795563472252935 0.5681316082147928 0.1885752609894994
4.007e-07      0.4518565878092937 0.4048441404047505 0.5801171892056736 0.175273048800923
4.032e-07      0.4797863815977546 0.4293097983168324 0.5916635024547046 0.1623537041378722
4.057e-07      0.5068312186501311 0.4529101958477466 0.6027568284902355 0.149846632642489
4.082e-07      0.5329412075713174 0.4756033659179555 0.6133863674433703 0.1377830015254147
4.107e-07      0.5580681781731477 0.4973619474850263 0.6235479347729489 0.1261859872879226
4.132e-07      0.5821657737319443 0.5181652098329416 0.633237581829428 0.1150723719964865
4.157e-07      0.6051895448768847 0.5379893853032359 0.6424486321382663 0.1044592468350304
4.182e-07      0.627097018140916 0.5568138119615499 0.6511763273636191 0.09436251540206919
4.207e-07      0.647847729240375 0.5746082287111097 0.6594145573622509 0.0848063286511411
4.232e-07      0.667403463427096 0.5913603175549572 0.6671548008571779 0.07579448330222083
4.257e-07      0.6857281456309938 0.6070458960498932 0.6743928923381572 0.06734699628826397
4.282e-07      0.7027879592073893 0.621641393361921 0.6811224362953561 0.05948104293343499
4.307e-07      0.7185514609808429 0.6351246237548087 0.6873342357119575 0.05220961195714875
4.332e-07      0.7329895637072366 0.6474764182476257 0.693021691025433 0.04554527277780717
4.357e-07      0.7460756564201731 0.6586813328452013 0.6981759609946376 0.03949462814943631
4.382e-07      0.7577855766530655 0.6687167053894597 0.7027912458204036 0.03407454043094389
4.407e-07      0.7680977252672511 0.6775643257686613 0.70686012407514 0.02929579830647864
4.432e-07      0.7769930997982989 0.6852016193358885 0.7103761462036104 0.02517452686772189
4.457e-07      0.7844552838365322 0.691624459746675 0.7133323131824381 0.02170785343576302
4.482e-07      0.7904705019083702 0.6968235151085782 0.7157252184363831 0.01890170332780493
4.507e-07      0.7950276557500033 0.7007840041261602 0.7175471194173568 0.01676311529119672
4.532e-07      0.7981183392388986 0.703501561134797 0.7187980875343012 0.01529652639950419
4.557e-07      0.7997368529776425 0.7049697304354452 0.7194746486166138 0.01450491818116873
4.582e-07      0.7998802114811254 0.7051856456210662 0.7195755406939254 0.01438989507285913
4.607e-07      0.7985481513579489 0.7041492584913286 0.7191005200649605 0.01495126157363185
4.632e-07      0.7957431285985134 0.7018621774804289 0.7180505264876165 0.01618834900718765
4.657e-07      0.7914703165859768 0.6983289331432866 0.7164275139793302 0.01809858083604372
4.682e-07      0.7857375954689528 0.693556489594061 0.7142344772840952 0.02067798769003423
4.707e-07      0.7785555425205036 0.6875549172294032 0.7114753430878159 0.02392042585841276
4.732e-07      0.7699374083898269 0.6803370344230039 0.7081544967451134 0.02781746232210955
4.757e-07      0.7598991123205708 0.6719044411750454 0.7042783863017722 0.03237394512672684
4.782e-07      0.7484591486521117 0.6622772448873122 0.6998533862492798 0.03757614136196755
4.807e-07      0.7356386158129639 0.6514739421966961 0.6948865961062124 0.04341265390951634
4.832e-07      0.7214611788283172 0.6395165180877361 0.6893845403536467 0.04986802226591055
4.857000000000001e-07 0.7059529817403544 0.6264223047547343 0.6833553009990638 0.05693299624432958
4.882e-07      0.6891426279801436 0.6122086017987812 0.6768053226988349 0.06459672090005364
4.907e-07      0.6710611261219487 0.5968977069124839 0.6697434435780237 0.07284573666553984
4.932e-07      0.6517418110560476 0.5805120601775526 0.6621774886684042 0.08166542849085159
4.957e-07      0.6312203342578985 0.563078917039265 0.6541130634494586 0.09103414641019361
4.981999999999999e-07 0.6095345214113038 0.5446059905037468 0.6455534357936017 0.1009474452898549
5.007e-07      0.5867243661384881 0.5251256048531739 0.6365097239991482 0.1113841191459743
5.032e-07      0.562831981033592 0.5046591757439025 0.6269853295473564 0.1223261538034539
5.057e-07      0.5379014340631953 0.4832274764903672 0.6169851503049766 0.1337576738146095
5.082000000000001e-07 0.5119787105333719 0.4608553338870245 0.6065168104030708 0.1456614765160463
5.107e-07      0.48511164723599 0.4375671332818821 0.5955838768387721 0.15801674355689
5.132e-07      0.457349796362597 0.4133959392027702 0.5841929853206417 0.1707970461178715
5.157e-07      0.4287442926873344 0.3883886286153359 0.572357190717344 0.1839685621020082
5.182e-07      0.3993479216051177 0.3625722109853135 0.5600839664518888 0.1975117554665754
5.207000000000001e-07 0.3692149631197993 0.3359406627402201 0.5473751544270931 0.2114344916868729
5.232e-07      0.3384009720093312 0.3084854406948854 0.5342901316604848 0.2258046909655993
5.257e-07      0.3069627987486078 0.2804294591270907 0.5207828774611658 0.2403534183340751
5.282e-07      0.2749584189627888 0.2517464577472311 0.5069088169529953 0.2551623592057642
5.307000000000001e-07 0.2424468766639716 0.2229383824749214 0.4927869444465744 0.2698485619716531
5.332e-07      0.2094881630769738 0.193242973109157 0.4783031155293337 0.2850601424201767
5.357e-07      0.1761429681783188 0.163050625948514 0.4635565616420242 0.3005059356935102
5.382e-07      0.1424728793961378 0.1323193118166698 0.448579277316922 0.3162599655002523
5.407e-07      0.1085400113205189 0.1014218042363753 0.4333717147969209 0.3319499105605456
5.432e-07      0.07440693675096106 0.07027357053179958 0.4179909584741685 0.3477173879423689
5.457e-07      0.04013661563572124 0.03898577868214807 0.4024741123840508 0.3634883337019027
5.482e-07      0.00579225964802058 0.007676481788090056 0.3866281878285278 0.3789517060404378
5.507e-07      -0.02856278094474945 -0.02367575369212877 0.3711767165511448 0.3948524702432735
5.532000000000001e-07 -0.06286513444754176 -0.05499572969216222 0.3554227451955334 0.4104184748876957
5.557e-07      -0.09705153059247157 -0.0862253211456652 0.3396413461031728 0.425866667248838
5.582e-07      -0.1310589114364585 -0.1172596541125911 0.3239012002763378 0.4411608543889289
5.607e-07      -0.1648245488197034 -0.1479817285771075 0.3082774061468168 0.4562591347239243
5.632e-07      -0.1982861859220205 -0.1785389105943295 0.2925612871441021 0.4711001977384316
