
time (s)       VT("/out") (V)


2.84e-08       0.6234833659491195 
3.09e-08       0.639334637964775 
3.34e-08       0.6534246575342466 
3.59e-08       0.6692759295499021 
3.84e-08       0.6833659491193738 
4.09e-08       0.6974559686888455 
4.34e-08       0.7115459882583171 
4.59e-08       0.7238747553816047 
4.84e-08       0.7379647749510764 
5.09e-08       0.7485322896281801 
5.34e-08       0.7608927993615036 
5.59e-08       0.7714285714285714 
5.840000000000001e-08 0.7819960861056752 
6.09e-08       0.7925636007827789 
6.34e-08       0.8013698630136986 
6.59e-08       0.8101761252446184 
6.84e-08       0.8172211350293542 
7.090000000000001e-08 0.82426614481409 
7.34e-08       0.8313111545988259 
7.59e-08       0.8365949119373777 
7.84e-08       0.8418786692759296 
8.09e-08       0.8471624266144815 
8.340000000000001e-08 0.8506849315068493 
8.589999999999999e-08 0.8524461839530333 
8.840000000000001e-08 0.8559686888454012 
9.09e-08       0.8559686888454012 
9.34e-08       0.8577018180166244 
9.590000000000001e-08 0.8577299412915852 
9.840000000000001e-08 0.8559981163242308 
1.009e-07      0.8542074363992173 
1.034e-07      0.8524687780901778 
1.059e-07      0.8489236790606653 
1.084e-07      0.8454011741682974 
1.109e-07      0.8400736538390702 
1.134e-07      0.8348336594911938 
1.159e-07      0.8295499021526419 
1.184e-07      0.8225048923679061 
1.209e-07      0.8154598825831703 
1.234e-07      0.8084148727984345 
1.259e-07      0.7996086105675148 
1.284e-07      0.7890410958904109 
1.309e-07      0.7802348336594912 
1.334e-07      0.7696673189823875 
1.359e-07      0.7573385518590998 
1.384e-07      0.7467710371819961 
1.409e-07      0.7344422700587084 
1.434e-07      0.7203522504892368 
1.459e-07      0.7080234833659491 
1.484e-07      0.6939334637964776 
1.509e-07      0.6798434442270059 
1.534e-07      0.6657534246575342 
1.559e-07      0.6499021526418787 
1.584e-07      0.6341035059704095 
1.609e-07      0.6181996086105676 
1.634e-07      0.6023483365949119 
1.659e-07      0.5864970645792563 
1.684e-07      0.5706457925636008 
1.709e-07      0.5530332681017613 
1.734e-07      0.5354207436399218 
1.759e-07      0.5195167942141361 
1.784e-07      0.5019569471624267 
1.809e-07      0.4843444227005871 
1.834e-07      0.4052998772053624 
1.859e-07      0.449119373776908 
1.884e-07      0.4315068493150685 
1.909e-07      0.413894324853229 
1.934e-07      0.3962818003913894 
1.959e-07      0.3786692759295499 
1.984e-07      0.3628859040459647 
2.009e-07      0.3452054794520548 
2.034e-07      0.3275929549902153 
2.059e-07      0.3117416829745597 
2.084e-07      0.2959201965084835 
2.109e-07      0.2800391389432485 
2.134e-07      0.2641878669275929 
2.159e-07      0.2483365949119374 
2.184e-07      0.2324853228962818 
2.209e-07      0.2183953033268102 
2.234e-07      0.2043052837573386 
2.259e-07      0.1902152641878669 
2.284e-07      0.1778864970645793 
2.309e-07      0.1655577299412916 
2.334e-07      0.1532289628180039 
2.359e-07      0.1409001956947162 
2.384e-07      0.1303326810176125 
2.409e-07      0.1197651663405088 
2.434e-07      0.1091976516634051 
2.459e-07      0.1003913894324853 
2.484e-07      0.09158512720156557 
2.509e-07      0.08277886497064581 
2.534e-07      0.07573385518590998 
2.559e-07      0.07045009784735812 
2.584e-07      0.06340508806262231 
2.609e-07      0.05812133072407045 
2.634e-07      0.05459882583170255 
2.659e-07      0.05107632093933464 
2.684e-07      0.04755381604696673 
2.709e-07      0.0458126724885034 
2.734e-07      0.04403131115459882 
2.759e-07      0.04227518241564777 
2.784e-07      0.04227005870841487 
2.809e-07      0.04402519201251159 
2.834e-07      0.04579256360078279 
2.859e-07      0.04754266390550575 
2.884e-07      0.04931506849315068 
2.909e-07      0.05459882583170255 
2.934e-07      0.05812133072407045 
2.959e-07      0.06340508806262231 
2.984e-07      0.06868884540117418 
3.009e-07      0.07573385518590998 
3.034e-07      0.08277886497064581 
3.059e-07      0.09158512720156557 
3.084e-07      0.1003913894324853 
3.109e-07      0.1091976516634051 
3.134e-07      0.1197651663405088 
3.159e-07      0.1285714285714286 
3.184e-07      0.1409172484761063 
3.209e-07      0.15146771037182 
3.234e-07      0.1637964774951076 
3.259e-07      0.1761790763487019 
3.284e-07      0.1902152641878669 
3.309e-07      0.2043052837573386 
3.334e-07      0.2183953033268102 
3.359e-07      0.2324853228962818 
3.384e-07      0.2483365949119374 
3.409e-07      0.262426614481409 
3.434e-07      0.2782778864970646 
3.459e-07      0.2958904109589041 
3.484e-07      0.3116955396394829 
3.509e-07      0.3275929549902153 
3.534e-07      0.3452054794520548 
3.559e-07      0.3610567514677104 
3.584e-07      0.3786692759295499 
3.609e-07      0.3962818003913894 
3.634e-07      0.413894324853229 
3.659e-07      0.4315068493150685 
3.684e-07      0.5153710920091569 
3.709e-07      0.4649706457925636 
3.734e-07      0.4843444227005871 
3.759e-07      0.5019569471624267 
3.784e-07      0.5178082191780823 
3.809e-07      0.5354207436399218 
3.834e-07      0.5530332681017613 
3.859e-07      0.5688454402329326 
3.884e-07      0.5864970645792563 
3.909e-07      0.6023483365949119 
3.934e-07      0.6181996086105676 
3.959e-07      0.6340508806262231 
3.984e-07      0.6498637678133653 
4.009e-07      0.6639921722113503 
4.034e-07      0.6798434442270059 
4.059e-07      0.6939334637964776 
4.084e-07      0.7080234833659491 
4.109e-07      0.7203522504892368 
4.134e-07      0.73273515525015 
4.159e-07      0.7450097847358121 
4.184e-07      0.7573385518590998 
4.209e-07      0.7679060665362036 
4.234e-07      0.7784735812133072 
4.259e-07      0.7890410958904109 
4.284e-07      0.7978473581213307 
4.309e-07      0.8066536203522505 
4.334e-07      0.8154598825831703 
4.359e-07      0.8225048923679061 
4.384e-07      0.8295499021526419 
4.409e-07      0.8348336594911938 
4.434e-07      0.8401174168297456 
4.459e-07      0.8454114094690817 
4.484e-07      0.8489236790606653 
4.509e-07      0.8524461839530333 
4.534e-07      0.854183437511835 
4.559e-07      0.8559686888454012 
4.584e-07      0.8576997584358312 
4.609e-07      0.8577299412915852 
4.634e-07      0.8560086835031545 
4.659e-07      0.8559686888454012 
4.684e-07      0.8524461839530333 
4.709e-07      0.8506849315068493 
4.734e-07      0.8471624266144815 
4.759e-07      0.8418786692759296 
4.784e-07      0.8365949119373777 
4.809e-07      0.8313111545988259 
4.834e-07      0.82426614481409 
4.859e-07      0.8172211350293542 
4.884e-07      0.8101761252446184 
4.909e-07      0.8013698630136986 
4.934e-07      0.7925636007827789 
4.959e-07      0.7819960861056752 
4.984e-07      0.7714285714285714 
5.009e-07      0.7608610567514678 
5.034e-07      0.7502935420743641 
5.059e-07      0.7379647749510764 
5.084000000000001e-07 0.7256360078277887 
5.109000000000001e-07 0.7115459882583171 
5.134e-07      0.6974559686888455 
5.159e-07      0.6833659491193738 
5.184e-07      0.6692759295499021 
5.209000000000001e-07 0.6551859099804306 
5.234e-07      0.6393236923406742 
5.259e-07      0.6234833659491195 
5.284e-07      0.6076320939334638 
5.309000000000001e-07 0.5917808219178082 
5.334000000000001e-07 0.5741682974559688 
5.359e-07      0.5583170254403131 
5.384e-07      0.5407045009784736 
5.409e-07      0.5230919765166341 
5.434000000000001e-07 0.5072407045009785 
5.459e-07      0.489628180039139 
5.484e-07      0.4720156555772995 
5.509e-07      0.3872254881831683 
5.534000000000001e-07 0.4367906066536204 
5.559e-07      0.4191780821917809 
5.584e-07      0.4015655577299413 
5.609e-07      0.3839530332681018 
5.634e-07      0.3663405088062623 
5.659000000000001e-07 0.3504358184428716 
5.684e-07      0.3328767123287671 
5.709e-07      0.3170254403131115 
5.734e-07      0.299412915851272 
5.759000000000001e-07 0.2835616438356164 
5.784e-07      0.2677467891311666 
5.809e-07      0.251812534502084 
5.834e-07      0.2377690802348336 
5.859000000000001e-07 0.2219178082191781 
5.884000000000001e-07 0.2078277886497065 
5.909e-07      0.1937377690802348 
5.934e-07      0.1814090019569472 
5.959e-07      0.1673189823874755 
5.984000000000001e-07 0.1567514677103719 
6.009e-07      0.1444227005870841 
6.034e-07      0.1320651764785633 
6.059e-07      0.1215264187866928 
6.084000000000001e-07 0.112720156555773 
6.109000000000001e-07 0.1021526418786693 
6.134e-07      0.09334637964774951 
6.159e-07      0.0863013698630137 
6.184e-07      0.0775278963989163 
6.209000000000001e-07 0.07221135029354207 
6.234e-07      0.06516634050880626 
6.259e-07      0.0598825831702544 
6.284e-07      0.05457356349182296 
6.309000000000001e-07 0.05107632093933464 
6.334e-07      0.04755381604696673 
6.359e-07      0.04580090911623759 
6.384e-07      0.04403131115459882 
6.409000000000001e-07 0.04227560190534493 
6.434000000000001e-07 0.04227005870841487 
6.459e-07      0.0440076252543093 
6.484e-07      0.04403131115459882 
6.509e-07      0.04579256360078279 
6.534000000000001e-07 0.04931506849315068 
6.559e-07      0.05283757338551859 
6.584e-07      0.0563600782778865 
6.609e-07      0.06164383561643835 
6.634000000000001e-07 0.06692759295499022 
6.659000000000001e-07 0.07397260273972603 
6.684e-07      0.08101761252446184 
6.709e-07      0.08806262230919765 
6.734e-07      0.09686888454011741 
6.759000000000001e-07 0.1056751467710372 
6.784e-07      0.1162426614481409 
6.809e-07      0.1268101761252446 
6.834e-07      0.1373776908023484 
6.859000000000001e-07 0.1479452054794521 
6.884e-07      0.1602739726027397 
6.909e-07      0.1726409409602614 
6.934e-07      0.186692759295499 
6.959e-07      0.1990215264187867 
6.984000000000001e-07 0.2131115459882583 
7.009e-07      0.2289628180039139 
7.034e-07      0.2430528375733855 
7.059e-07      0.2588684303577871 
7.084000000000001e-07 0.2747553816046967 
7.109e-07      0.2905663397943947 
7.134e-07      0.3064579256360078 
7.159e-07      0.3222707494299559 
7.184000000000001e-07 0.339921722113503 
7.209000000000001e-07 0.3557729941291585 
7.234e-07      0.3733855185909981 
7.259e-07      0.3909980430528376 
7.284e-07      0.4086105675146771 
7.309000000000001e-07 0.4262230919765166 
7.334e-07      0.5087034362294467 
7.359e-07      0.4614928233476272 
7.384e-07      0.4790606653620352 
7.409000000000001e-07 0.4966731898238748 
7.434000000000001e-07 0.5142857142857143 
7.459e-07      0.53013698630137 
7.484e-07      0.5477495107632094 
7.509e-07      0.565362035225049 
7.534000000000001e-07 0.5812133072407045 
7.559e-07      0.598825831702544 
7.584e-07      0.6146771037181996 
7.609e-07      0.6305283757338551 
7.634000000000001e-07 0.6446183953033269 
7.659e-07      0.6604289461692678 
7.684e-07      0.674559686888454 
7.709e-07      0.6904109589041096 
7.734000000000001e-07 0.7045009784735812 
7.759000000000001e-07 0.716829745596869 
7.784e-07      0.7291585127201566 
7.809e-07      0.7414872798434443 
7.834e-07      0.7538160469667319 
7.859000000000001e-07 0.7661448140900196 
7.884e-07      0.7767123287671234 
7.909e-07      0.7872798434442271 
7.934e-07      0.7960861056751468 
7.959000000000001e-07 0.8048923679060666 
7.984000000000001e-07 0.8136986301369863 
8.009e-07      0.8207436399217222 
8.034e-07      0.8277886497064579 
8.059e-07      0.8348336594911938 
8.084000000000001e-07 0.8401174168297456 
8.109e-07      0.8436399217221136 
8.134e-07      0.8489510778839512 
8.159e-07      0.8506406256327967 
8.184000000000001e-07 0.8542074363992173 
8.209000000000001e-07 0.8559686888454012 
8.234e-07      0.8576942071899191 
8.259e-07      0.8577299412915852 
8.284e-07      0.8577299412915852 
8.309000000000001e-07 0.8559983698186244 
8.334e-07      0.8542074363992173 
8.359e-07      0.8506849315068493 
8.384e-07      0.8471624266144815 
8.409000000000001e-07 0.8436399217221136 
8.434e-07      0.8383561643835618 
8.459e-07      0.8330724070450097 
8.484e-07      0.8277886497064579 
8.509000000000001e-07 0.8207436399217222 
8.534000000000001e-07 0.8119373776908024 
8.559e-07      0.8048923679060666 
8.584e-07      0.7960861056751468 
8.609e-07      0.7855185909980431 
8.634000000000001e-07 0.7749510763209393 
8.659e-07      0.7643835616438357 
8.684e-07      0.7519955479417669 
8.709e-07      0.7414872798434443 
8.734000000000001e-07 0.7291585127201566 
8.759000000000001e-07 0.715068493150685 
8.784e-07      0.7026902105690331 
8.809e-07      0.6886497064579257 
8.834e-07      0.6727984344422701 
8.859000000000001e-07 0.6587084148727985 
8.884e-07      0.6428571428571429 
8.909e-07      0.6287671232876713 
8.934e-07      0.6111545988258317 
8.959000000000001e-07 0.5953033268101761 
8.984000000000001e-07 0.5794520547945206 
9.009e-07      0.5636007827788649 
9.034e-07      0.5459882583170255 
9.059000000000001e-07 0.5283757338551859 
9.084000000000001e-07 0.5107632093933464 
9.109e-07      0.4949119373776908 
9.134e-07      0.4772994129158513 
9.159e-07      0.3935416922524252 
9.184000000000001e-07 0.4420743639921722 
9.209e-07      0.4244618395303327 
9.234e-07      0.4068493150684931 
9.259e-07      0.3892367906066536 
9.284000000000001e-07 0.3716242661448141 
9.309000000000001e-07 0.3540117416829746 
9.334e-07      0.336399217221135 
9.359e-07      0.3205479452054795 
9.384e-07      0.3046966731898239 
9.409000000000001e-07 0.2888454011741683 
9.434e-07      0.2729941291585127 
9.459e-07      0.2571428571428572 
9.484e-07      0.2412915851272016 
9.509000000000001e-07 0.22720156555773 
9.534000000000001e-07 0.2131115459882583 
9.559e-07      0.1990215264187867 
9.584e-07      0.1849315068493151 
9.609e-07      0.1726027397260274 
9.634e-07      0.1585127201565558 
9.658999999999999e-07 0.1479452054794521 
9.683999999999999e-07 0.1355877628322199 
9.708999999999999e-07 0.1250489236790607 
9.734000000000001e-07 0.1144814090019569 
9.759e-07      0.1056751467710372 
9.784e-07      0.09686888454011741 
9.809e-07      0.08806262230919765 
9.834e-07      0.08101761252446184 
9.859e-07      0.07397260273972603 
9.884000000000001e-07 0.06692759295499022 
9.909000000000001e-07 0.06164383561643835 
9.934000000000001e-07 0.0563600782778865 
9.959000000000001e-07 0.05283757338551859 
9.984e-07      0.04931506849315068 
1.0009e-06     0.04579256360078279 
1.0034e-06     0.04403131115459882 
1.0059e-06     0.04228694801227356 
1.0084e-06     0.04227005870841487 
1.0109e-06     0.04227005870841487 
1.0134e-06     0.04402978115679842 
1.0159e-06     0.04579256360078279 
1.0184e-06     0.04753694390939785 
1.0209e-06     0.05107632093933464 
1.0234e-06     0.0563600782778865 
1.0259e-06     0.0598825831702544 
1.0284e-06     0.06516634050880626 
1.0309e-06     0.07221135029354207 
1.0334e-06     0.07925636007827788 
1.0359e-06     0.0863013698630137 
1.0384e-06     0.09510763209393347 
1.0409e-06     0.1039138943248532 
1.0434e-06     0.112720156555773 
1.0459e-06     0.1232876712328767 
1.0484e-06     0.1338551859099804 
1.0509e-06     0.1444227005870841 
1.0534e-06     0.1567514677103719 
1.0559e-06     0.1691042494763398 
1.0584e-06     0.1831702544031311 
1.0609e-06     0.1954990215264188 
1.0634e-06     0.2095890410958904 
1.0659e-06     0.225440313111546 
1.0684e-06     0.2395303326810176 
1.0709e-06     0.2536203522504892 
1.0734e-06     0.2694716242661448 
1.0759e-06     0.2853228962818004 
1.0784e-06     0.301174168297456 
1.0809e-06     0.3187866927592955 
1.0834e-06     0.3346379647749511 
1.0859e-06     0.3522504892367906 
1.0884e-06     0.3680611382779143 
1.0909e-06     0.3857142857142857 
1.0934e-06     0.4033268101761253 
1.0959e-06     0.4209393346379648 
1.0984e-06     0.5042488174433796 
1.1009e-06     0.4561643835616438 
1.1034e-06     0.4737769080234834 
1.1059e-06     0.4913894324853229 
1.1084e-06     0.5090019569471624 
1.1109e-06     0.5248532289628179 
1.1134e-06     0.5424657534246575 
1.1159e-06     0.560078277886497 
1.1184e-06     0.5776908023483366 
1.1209e-06     0.5935066583914788 
1.1234e-06     0.6093933463796478 
1.1259e-06     0.6252052416497951 
1.1284e-06     0.6410958904109589 
1.1309e-06     0.65688536127144 
1.1334e-06     0.6710371819960862 
1.1359e-06     0.6851272015655577 
1.1384e-06     0.6992172211350294 
1.1409e-06     0.713307240704501 
1.1434e-06     0.7256360078277887 
1.1459e-06     0.7397260273972602 
1.1484e-06     0.7502935420743641 
1.1509e-06     0.7626223091976516 
1.1534e-06     0.7731898238747554 
1.1559e-06     0.7837573385518591 
1.1584e-06     0.7925636007827789 
1.1609e-06     0.8031311154598827 
1.1634e-06     0.8101761252446184 
1.1659e-06     0.8189553436714007 
1.1684e-06     0.826027397260274 
1.1709e-06     0.8330724070450097 
1.1734e-06     0.8383561643835618 
1.1759e-06     0.8436399217221136 
1.1784e-06     0.8471624266144815 
1.1809e-06     0.8506849315068493 
1.1834e-06     0.8542074363992173 
1.1859e-06     0.8559686888454012 
1.1884e-06     0.8559686888454012 
1.1909e-06     0.8577029866285211 
1.1934e-06     0.8577299412915852 
1.1959e-06     0.8559987005486973 
1.1984e-06     0.8542074363992173 
1.2009e-06     0.852469084658929 
1.2034e-06     0.8489236790606653 
1.2059e-06     0.8454011741682974 
1.2084e-06     0.8400882293349848 
1.2109e-06     0.8348336594911938 
1.2134e-06     0.8295499021526419 
1.2159e-06     0.8225048923679061 
1.2184e-06     0.8154598825831703 
1.2209e-06     0.8066536203522505 
1.2234e-06     0.7978473581213307 
1.2259e-06     0.7872798434442271 
1.2284e-06     0.7784735812133072 
1.2309e-06     0.7679060665362036 
1.2334e-06     0.7555239472612791 
1.2359e-06     0.7450097847358121 
1.2384e-06     0.7326810176125246 
1.2409e-06     0.7185909980430528 
1.2434e-06     0.7062622309197653 
1.2459e-06     0.6921722113502935 
1.2484e-06     0.678082191780822 
1.2509e-06     0.6639921722113503 
1.2534e-06     0.6481409001956947 
1.2559e-06     0.6322314202168743 
1.2584e-06     0.6164886210341517 
1.2609e-06     0.6005870841487281 
1.2634e-06     0.5847848705366613 
1.2659e-06     0.5671232876712329 
1.2684e-06     0.5512720156555773 
1.2709e-06     0.5336594911937378 
1.2734e-06     0.5160469667318982 
1.2759e-06     0.4984344422700587 
1.2784e-06     0.4825831702544031 
1.2809e-06     0.4009633771471742 
1.2834e-06     0.4473581213307241 
1.2859e-06     0.4297455968688845 
1.2884e-06     0.412133072407045 
1.2909e-06     0.3945205479452055 
1.2934e-06     0.3769080234833659 
1.2959e-06     0.3592954990215264 
1.2984e-06     0.3434442270058709 
1.3009e-06     0.3258317025440313 
1.3034e-06     0.3099804305283758 
1.3059e-06     0.2923679060665362 
1.3084e-06     0.2765166340508807 
1.3109e-06     0.2606653620352251 
1.3134e-06     0.2465753424657534 
1.3159e-06     0.2307240704500979 
1.3184e-06     0.2166340508806262 
1.3209e-06     0.2025440313111546 
1.3234e-06     0.188454011741683 
1.3259e-06     0.1761252446183953 
1.3284e-06     0.1620352250489237 
1.3309e-06     0.15146771037182 
1.3334e-06     0.1391104957706273 
1.3359e-06     0.1285714285714286 
1.3384e-06     0.1180039138943249 
1.3409e-06     0.1074363992172211 
1.3434e-06     0.09863013698630137 
1.3459e-06     0.0898238747553816 
1.3484e-06     0.08277886497064581 
1.3509e-06     0.07573385518590998 
1.3534e-06     0.06868884540117418 
1.3559e-06     0.06340508806262231 
1.3584e-06     0.05812133072407045 
1.3609e-06     0.05283757338551859 
1.3634e-06     0.04931506849315068 
1.3659e-06     0.04755381604696673 
1.3684e-06     0.04403131115459882 
1.3709e-06     0.04403131115459882 
1.3734e-06     0.04227466298247258 
1.3759e-06     0.04227005870841487 
1.3784e-06     0.04402746420728894 
1.3809e-06     0.04579256360078279 
1.3834e-06     0.04754629630199665 
1.3859e-06     0.05107632093933464 
1.3884e-06     0.05459882583170255 
1.3909e-06     0.05990277272928216 
1.3934e-06     0.06516634050880626 
1.3959e-06     0.07045009784735812 
1.3984e-06     0.07749510763209394 
1.4009e-06     0.08454011741682975 
1.4034e-06     0.09158512720156557 
1.4059e-06     0.1003913894324853 
1.4084e-06     0.110958904109589 
1.4109e-06     0.1197651663405088 
