
time (s)       VT("/out") (V)


2.765e-08      0.6229057407459163 
3.015e-08      0.6363790986046196 
3.265e-08      0.6534246575342466 
3.515e-08      0.6686941128521382 
3.765e-08      0.6833659491193738 
4.015e-08      0.6959529987436108 
4.265e-08      0.7115459882583171 
4.515e-08      0.7213880391418841 
4.765e-08      0.7379647749510764 
5.015e-08      0.7485322896281801 
5.265e-08      0.7622137386961415 
5.515e-08      0.7671950704928402 
5.765e-08      0.7819960861056752 
6.014999999999999e-08 0.7943647608729401 
6.265e-08      0.7977407020924858 
6.515e-08      0.8101761252446184 
6.765e-08      0.8172211350293542 
7.015e-08      0.8219688219314428 
7.265000000000001e-08 0.8313111545988259 
7.515000000000001e-08 0.8333185261258474 
7.765e-08      0.8409850699271511 
8.015e-08      0.8467188211100733 
8.265e-08      0.8487996203133736 
8.514999999999999e-08 0.8526412656810318 
8.765000000000001e-08 0.8540359893091495 
9.015e-08      0.8559686888454012 
9.265e-08      0.8563808786819863 
9.515e-08      0.8577299412915852 
9.765e-08      0.8573190556588689 
1.0015e-07     0.8547892904273473 
1.0265e-07     0.8537897174248159 
1.0515e-07     0.8492753267260477 
1.0765e-07     0.847286712203262 
1.1015e-07     0.8387527145044323 
1.1265e-07     0.8366191541363199 
1.1515e-07     0.8291786497567853 
1.1765e-07     0.8248769686182591 
1.2015e-07     0.8154598825831703 
1.2265e-07     0.8107195727388095 
1.2515e-07     0.8002239353306099 
1.2765e-07     0.7931827746505231 
1.3015e-07     0.7754348052502671 
1.3265e-07     0.7708804584730545 
1.3515e-07     0.7580810352511298 
1.3765e-07     0.7510915852551066 
1.4015e-07     0.7346425217544076 
1.4265e-07     0.7203522504892368 
1.4515e-07     0.7090431994112462 
1.4765e-07     0.6939334637964776 
1.5015e-07     0.6812798037103764 
1.5265e-07     0.6657534246575342 
1.5515e-07     0.6521477609298493 
1.5765e-07     0.6354244453050476 
1.6015e-07     0.6172980173135398 
1.6265e-07     0.6053863522290742 
1.6515e-07     0.5864970645792563 
1.6765e-07     0.5734959713256462 
1.7015e-07     0.5518722714099507 
1.7265e-07     0.5390035108046234 
1.7515e-07     0.5181958548794982 
1.7765e-07     0.503898784830074 
1.8015e-07     0.4862859628744308 
1.8265e-07     0.4667318982387476 
1.8515e-07     0.449119373776908 
1.8765e-07     0.4350512496912572 
1.9015e-07     0.413894324853229 
1.9265e-07     0.3997980522178523 
1.9515e-07     0.3786692759295499 
1.9765e-07     0.3642068433806026 
2.0015e-07     0.3486228478989801 
2.0265e-07     0.32643841701892 
2.0515e-07     0.3139482738106625 
2.0765e-07     0.2972411358431215 
2.1015e-07     0.2791368307163563 
2.1265e-07     0.2671203628159846 
2.1515e-07     0.2483365949119374 
2.1765e-07     0.2352422653960028 
2.2015e-07     0.2183953033268102 
2.2265e-07     0.2058469728871105 
2.2515e-07     0.1902152641878669 
2.2765e-07     0.1780635775878199 
2.3015e-07     0.1649472231578184 
2.3265e-07     0.1534327673749234 
2.3515e-07     0.1464203364057566 
2.3765e-07     0.1302718803282305 
2.4015e-07     0.1207862965276572 
2.4265e-07     0.1058811644628176 
2.4515e-07     0.1032190836517769 
2.4765e-07     0.0920908858161639 
2.5015e-07     0.08173762285926092 
2.5265e-07     0.07802224090912713 
2.5515e-07     0.07374013794570883 
2.5765e-07     0.06340508806262231 
2.6015e-07     0.05895573612717177 
2.6265e-07     0.05459882583170255 
2.6515e-07     0.05294927049600131 
2.6765e-07     0.04790026579309997 
2.7015e-07     0.04713361182314137 
2.7265e-07     0.04456830006851129 
2.7515e-07     0.04359612175028574 
2.7765e-07     0.04227005870841487 
2.8015e-07     0.04270425267787362 
2.8265e-07     0.0452275619841228 
2.8515e-07     0.04622172457086779 
2.8765e-07     0.04959389463804886 
2.9015e-07     0.05138163496311345 
2.9265e-07     0.05812133072407045 
2.9515e-07     0.06252238518570412 
2.9765e-07     0.06544920670299084 
3.0015e-07     0.07573385518590998 
3.0265e-07     0.08052038384574178 
3.0515e-07     0.09301854223960654 
3.0765e-07     0.09981279764947355 
3.1015e-07     0.1063949514274081 
3.1265e-07     0.121683254285266 
3.1515e-07     0.1280261901546345 
3.1765e-07     0.1422381878107442 
3.2015e-07     0.147270500532258 
3.2265e-07     0.1628945579033595 
3.2515e-07     0.1775000156833399 
3.2765e-07     0.1886987199593033 
3.3015e-07     0.2043052837573386 
3.3265e-07     0.2169025410222683 
3.3515e-07     0.2324853228962818 
3.3765e-07     0.2455104754768663 
3.4015e-07     0.262426614481409 
3.4265e-07     0.2761692718185719 
3.4515e-07     0.2964304515982606 
3.4765e-07     0.3103746003048449 
3.5015e-07     0.3254573962841599 
3.5265e-07     0.3462615609241609 
3.5515e-07     0.3581411159720326 
3.5765e-07     0.3786692759295499 
3.6015e-07     0.3962818003913894 
3.6265e-07     0.4103713582092523 
3.6515e-07     0.4315068493150685 
3.6765e-07     0.4452726646949689 
3.7015e-07     0.4649706457925636 
3.7265e-07     0.4843444227005871 
3.7515e-07     0.5000789071363204 
3.7765e-07     0.5172476672540991 
3.8015e-07     0.5354207436399218 
3.8265e-07     0.5495157467054868 
3.8515e-07     0.5675245008982946 
3.8765e-07     0.5845954055374339 
3.9015e-07     0.6024180790199074 
3.9265e-07     0.6152033274729557 
3.9515e-07     0.6356633300895379 
3.9765e-07     0.6485428284787272 
4.0015e-07     0.6623975422224457 
4.0265e-07     0.6798434442270059 
4.0515e-07     0.6924256937933335 
4.0765e-07     0.7080234833659491 
4.1015e-07     0.7193495585135322 
4.1265e-07     0.7340560945847878 
4.1515e-07     0.7391955734887748 
4.1765e-07     0.7571339944277374 
4.2015e-07     0.7679816608549001 
4.2265e-07     0.7773333085124395 
4.2515e-07     0.7925129040193601 
4.2765e-07     0.7942288928061287 
4.3015e-07     0.8066536203522505 
4.3265e-07     0.8118020756762835 
4.3515e-07     0.8225048923679061 
4.3765e-07     0.8272591614921809 
4.4015e-07     0.8354305719911063 
4.4265e-07     0.8384489904723266 
4.4515e-07     0.8467323488037197 
4.4765e-07     0.8470339284097201 
4.5015e-07     0.8520851472550758 
4.5265e-07     0.8528624981771971 
4.5515e-07     0.8554177244204284 
4.5765e-07     0.8563788191011932 
4.6015e-07     0.8577299412915852 
4.6265e-07     0.8573296228377925 
4.6515e-07     0.8559686888454012 
4.6765e-07     0.8543463216933694 
4.7015e-07     0.8505405873171173 
4.7265e-07     0.8490476637592087 
4.7515e-07     0.8427668722539974 
4.7765e-07     0.8376171943826962 
4.8015e-07     0.8345805089623192 
4.826499999999999e-07 0.82426614481409 
4.8515e-07     0.8195018256492496 
4.8765e-07     0.8101761252446184 
4.9015e-07     0.8013698630136986 
4.9265e-07     0.7961619545690864 
4.9515e-07     0.7801124209145378 
4.9765e-07     0.7714285714285714 
5.0015e-07     0.7651120940201696 
5.0265e-07     0.7502070378270416 
5.051499999999999e-07 0.7381446911497092 
5.0765e-07     0.7265837015720867 
5.1015e-07     0.7131176909383624 
5.1265e-07     0.6974559686888455 
5.1515e-07     0.6848155037225333 
5.176499999999999e-07 0.6692759295499021 
5.2015e-07     0.6568105825015389 
5.2265e-07     0.638002753006036 
5.2515e-07     0.6264185561623155 
5.276499999999999e-07 0.6082187418912964 
5.3015e-07     0.5948511547804598 
5.3265e-07     0.5741682974559688 
5.3515e-07     0.5573731149725264 
5.376499999999999e-07 0.5427430369155734 
5.401499999999999e-07 0.5230919765166341 
5.4265e-07     0.5101931803405124 
5.4515e-07     0.489628180039139 
5.4765e-07     0.4720156555772995 
5.501499999999999e-07 0.4561048457083053 
5.5265e-07     0.4367906066536204 
5.5515e-07     0.4191780821917809 
5.5765e-07     0.4050869036174395 
5.601499999999999e-07 0.3839683381837389 
5.626499999999999e-07 0.3699195516166599 
5.6515e-07     0.3491148791082336 
5.6765e-07     0.3328767123287671 
5.7015e-07     0.3199937157882444 
5.726499999999999e-07 0.299412915851272 
5.7515e-07     0.2856755872899463 
5.7765e-07     0.2690677284658047 
5.8015e-07     0.250491595167446 
5.826499999999999e-07 0.2392874233555707 
5.8515e-07     0.2219178082191781 
5.8765e-07     0.2094295006506503 
5.9015e-07     0.1937377690802348 
5.9265e-07     0.1816605011123183 
5.951499999999999e-07 0.1673189823874755 
5.9765e-07     0.1609761720365347 
6.0015e-07     0.1453800798090455 
6.0265e-07     0.1307442371439253 
6.051499999999999e-07 0.122656587183937 
6.0765e-07     0.1162081840617547 
6.1015e-07     0.09885152079331137 
6.1265e-07     0.09334637964774951 
6.151499999999999e-07 0.08853509791113419 
6.176499999999999e-07 0.07884883573355436 
6.2015e-07     0.07308909397622101 
6.2265e-07     0.06516634050880626 
6.2515e-07     0.06151720519385814 
6.276499999999999e-07 0.05325262415718489 
6.3015e-07     0.0529650039706767 
6.3265e-07     0.04792594370025176 
6.3515e-07     0.04712184845087566 
6.376499999999999e-07 0.04457748274877581 
6.4015e-07     0.04359654123998299 
6.4265e-07     0.04227005870841487 
6.4515e-07     0.04268668591967124 
6.4765e-07     0.04403131115459882 
6.501499999999999e-07 0.04527058019085071 
6.5265e-07     0.048980391992933 
6.5515e-07     0.05096234281667294 
6.5765e-07     0.0563600782778865 
6.601499999999999e-07 0.05844950683705488 
6.6265e-07     0.06607982808358913 
6.6515e-07     0.07397260273972603 
6.6765e-07     0.07879436083903693 
6.701499999999999e-07 0.08806262230919765 
6.726499999999999e-07 0.09325034627144642 
6.7515e-07     0.1056751467710372 
6.7765e-07     0.1155798488837847 
6.8015e-07     0.1268101761252446 
6.826499999999999e-07 0.133200441940192 
6.8515e-07     0.1480042304892396 
6.8765e-07     0.1578601127042762 
6.9015e-07     0.1739618802948995 
6.926499999999999e-07 0.1851588618789239 
6.951499999999999e-07 0.198710787632245 
6.9765e-07     0.2115778600385527 
7.0015e-07     0.2289628180039139 
7.0265e-07     0.2415997635377183 
7.051499999999999e-07 0.257547491023149 
7.0765e-07     0.2741640800995502 
7.1015e-07     0.2892454004597566 
7.1265e-07     0.3043146875927473 
7.151499999999999e-07 0.3209498100953179 
7.1765e-07     0.3440769579199644 
7.2015e-07     0.3536824153663094 
7.2265e-07     0.3733855185909981 
7.2515e-07     0.3874759458315499 
7.276499999999999e-07 0.4089194744841799 
7.3015e-07     0.4262230919765166 
7.3265e-07     0.4391715967320624 
7.3515e-07     0.4628137626822653 
7.376499999999999e-07 0.4790606653620352 
7.4015e-07     0.4931836241839359 
7.4265e-07     0.5142857142857143 
7.4515e-07     0.5272172752393368 
7.476499999999999e-07 0.5477495107632094 
7.501499999999999e-07 0.5694868664186939 
7.5265e-07     0.5791127040787187 
7.5515e-07     0.598825831702544 
7.5765e-07     0.6117288282718504 
7.601499999999999e-07 0.6299299922753899 
7.6265e-07     0.64300565353477 
7.6515e-07     0.6591080068346299 
7.6765e-07     0.6729828017601355 
7.701499999999999e-07 0.693029084071024 
7.7265e-07     0.7045009784735812 
7.7515e-07     0.711197904159337 
7.7765e-07     0.7289699552590595 
7.8015e-07     0.7421142563291624 
7.826499999999999e-07 0.7536390955960129 
7.8515e-07     0.7634205551207494 
7.8765e-07     0.7767123287671234 
7.9015e-07     0.7830968770617597 
7.926499999999999e-07 0.7993412149955417 
7.9515e-07     0.8043106864090821 
7.9765e-07     0.8108407240448446 
8.0015e-07     0.8207436399217222 
8.0265e-07     0.8255109172706759 
8.051499999999999e-07 0.8348336594911938 
8.0765e-07     0.8383929211653323 
8.1015e-07     0.8417307477435318 
8.1265e-07     0.8502720172185892 
8.151499999999999e-07 0.8493196862981587 
8.1765e-07     0.8538760890883704 
8.2015e-07     0.8554139777373588 
8.2265e-07     0.8563732678552809 
8.251499999999999e-07 0.8577299412915852 
8.276499999999999e-07 0.8577299412915852 
8.3015e-07     0.8573193091532625 
8.3265e-07     0.8547660097545519 
8.3515e-07     0.8510926080706215 
8.376499999999999e-07 0.8490782655705005 
8.4015e-07     0.8436399217221136 
8.4265e-07     0.8416330800869405 
8.4515e-07     0.8340206126706857 
8.476499999999999e-07 0.8287789158233794 
8.5015e-07     0.8230304496746471 
8.5265e-07     0.8122243213139881 
8.5515e-07     0.8071850796779125 
8.5765e-07     0.7965330210921803 
8.601499999999999e-07 0.7820968780596053 
8.6265e-07     0.7792242455027748 
8.6515e-07     0.7643835616438357 
8.6765e-07     0.7506746086071289 
8.701499999999999e-07 0.7426919684694525 
8.7265e-07     0.7285726521171974 
8.7515e-07     0.7166924201729743 
8.7765e-07     0.701369271234395 
8.8015e-07     0.6902066528127495 
8.826499999999999e-07 0.6727984344422701 
8.8515e-07     0.6603445983172642 
8.8765e-07     0.6428571428571429 
8.9015e-07     0.6303749302205716 
8.926499999999999e-07 0.6116408106764738 
8.9515e-07     0.5982849334432104 
8.9765e-07     0.5794520547945206 
9.0015e-07     0.566451047507544 
9.026499999999999e-07 0.5417332325117518 
9.0515e-07     0.5283757338551859 
9.0765e-07     0.5126771037447252 
9.1015e-07     0.495476727370613 
9.1265e-07     0.4772994129158513 
9.151499999999999e-07 0.4630022988535241 
9.1765e-07     0.4420743639921722 
9.2015e-07     0.4280577406344703 
9.2265e-07     0.4068493150684931 
9.251499999999999e-07 0.391191251131017 
9.2765e-07     0.3736643456179408 
9.3015e-07     0.3540117416829746 
9.3265e-07     0.3321177016622143 
9.3515e-07     0.3235623638801111 
9.376499999999999e-07 0.3046966731898239 
9.4015e-07     0.2917346279211088 
9.4265e-07     0.2724253004765011 
9.4515e-07     0.2600464958139668 
9.476499999999999e-07 0.2412915851272016 
9.5015e-07     0.2285721943780388 
9.5265e-07     0.2131115459882583 
9.551500000000001e-07 0.2006278106205867 
9.576500000000001e-07 0.1849315068493151 
9.6015e-07     0.1735299058366223 
9.6265e-07     0.1585127201565558 
9.6515e-07     0.1490735447399417 
9.6765e-07     0.134266823497582 
9.701499999999999e-07 0.1250489236790607 
9.726500000000001e-07 0.118533840778116 
9.751500000000001e-07 0.1033016986014732 
9.776500000000001e-07 0.09686888454011741 
9.801500000000001e-07 0.09164844481806367 
9.8265e-07     0.08101761252446184 
9.8515e-07     0.07619725546148272 
9.876500000000002e-07 0.06692759295499022 
9.901500000000002e-07 0.06251254123938271 
9.926500000000001e-07 0.05951406711092246 
9.951500000000001e-07 0.05283757338551859 
9.976500000000001e-07 0.05120646140450686 
1.00015e-06    0.04611883257187738 
1.00265e-06    0.04458529278459544 
1.00515e-06    0.04360788734691144 
1.00765e-06    0.04227005870841487 
1.01015e-06    0.04227005870841487 
1.01265e-06    0.04270884182216055 
1.01515e-06    0.04525692792302846 
1.01765e-06    0.04621600457475997 
1.02015e-06    0.05079638998818688 
1.02265e-06    0.05766976486640311 
1.02515e-06    0.05802751336420889 
1.02765e-06    0.06355457445877283 
1.03015e-06    0.07221135029354207 
1.03265e-06    0.0770229344319082 
1.03515e-06    0.0863013698630137 
1.03765e-06    0.09230688955407854 
1.04015e-06    0.103418346592296 
1.04265e-06    0.1158879229525964 
1.04515e-06    0.1191751606668532 
1.04765e-06    0.1338551859099804 
1.05015e-06    0.143016395942284 
1.05265e-06    0.1557997472816856 
1.05515e-06    0.1704251888109777 
1.05765e-06    0.1814612642659905 
1.06015e-06    0.1898774118685944 
1.06265e-06    0.2095890410958904 
1.06515e-06    0.2282304836140026 
1.06765e-06    0.2379435468404833 
1.07015e-06    0.2536203522504892 
1.07265e-06    0.2665421948994428 
1.07515e-06    0.284763437551484 
1.07765e-06    0.2982658800956962 
1.08015e-06    0.3187866927592955 
1.08265e-06    0.3325597539089896 
1.08515e-06    0.356512689476871 
1.08765e-06    0.3667401989432765 
1.09015e-06    0.382201438814965 
1.09265e-06    0.4033268101761253 
1.09515e-06    0.4173731761494028 
1.09765e-06    0.4385518590998043 
1.10015e-06    0.4561643835616438 
1.10265e-06    0.471980701348725 
1.10515e-06    0.4913894324853229 
1.10765e-06    0.5090019569471624 
1.11015e-06    0.5227608458453259 
1.11265e-06    0.5424657534246575 
1.11515e-06    0.5565893301111965 
1.11765e-06    0.5819978815490672 
1.12015e-06    0.5921857190568408 
1.12265e-06    0.6072174060910746 
1.12515e-06    0.6238843023151572 
1.12765e-06    0.6404676549516871 
1.13015e-06    0.6555644219368023 
1.13265e-06    0.6695141059827511 
1.13515e-06    0.6851272015655577 
1.13765e-06    0.6977091829804124 
1.14015e-06    0.713307240704501 
1.14265e-06    0.7254683218448958 
1.14515e-06    0.7397260273972602 
1.14765e-06    0.7491256992326116 
1.15015e-06    0.7619906993419151 
1.15265e-06    0.7689325044338651 
1.15515e-06    0.7837573385518591 
1.15765e-06    0.7957436787674042 
1.16015e-06    0.8031311154598827 
1.16265e-06    0.8078763220936157 
1.16515e-06    0.8176344043367628 
1.16765e-06    0.8237488683322393 
1.17015e-06    0.8330724070450097 
1.17265e-06    0.8373730647264908 
1.17515e-06    0.8403710393300968 
1.17765e-06    0.8471624266144815 
1.18015e-06    0.8487940131470587 
1.18265e-06    0.8538614105451426 
1.18515e-06    0.8554045041306318 
1.18765e-06    0.8559686888454012 
1.19015e-06    0.8563820472938831 
1.19265e-06    0.8577299412915852 
1.19515e-06    0.8573196398833351 
1.19765e-06    0.8547802250551879 
1.20015e-06    0.8537900239935668 
1.20265e-06    0.8492749149797549 
1.20515e-06    0.8473001072332383 
1.20765e-06    0.838767290000347 
1.21015e-06    0.8365620410764731 
1.21265e-06    0.8290581281552214 
1.21515e-06    0.8248087385459811 
1.21765e-06    0.8154598825831703 
1.22015e-06    0.8103024570329004 
1.22265e-06    0.7978473581213307 
1.22515e-06    0.7837942910813985 
1.22765e-06    0.782149338354166 
1.23015e-06    0.7690869089752329 
1.23265e-06    0.7542030079266413 
1.23515e-06    0.7450097847358121 
1.23765e-06    0.7382298424296656 
1.24015e-06    0.7185909980430528 
1.24265e-06    0.7065109878186522 
1.24515e-06    0.6921722113502935 
1.24765e-06    0.6795480033156843 
1.25015e-06    0.6639921722113503 
1.25265e-06    0.6512320607805355 
1.25515e-06    0.6309104808822363 
1.25765e-06    0.6178095603687895 
1.26015e-06    0.6027937327875381 
1.26265e-06    0.5861058098712991 
1.26515e-06    0.5689611660012319 
1.26765e-06    0.5502090988744894 
1.27015e-06    0.5336594911937378 
1.27265e-06    0.5195780861328921 
1.27515e-06    0.4987405358554051 
1.27765e-06    0.4854933400035492 
1.28015e-06    0.4649706457925636 
1.28265e-06    0.4473581213307241 
1.28515e-06    0.4333285522547768 
1.28765e-06    0.412133072407045 
1.29015e-06    0.3983079918865034 
1.29265e-06    0.3769080234833659 
1.29515e-06    0.3592954990215264 
1.29765e-06    0.3439231789680338 
1.30015e-06    0.3258317025440313 
1.30265e-06    0.3132339422519562 
1.30515e-06    0.2923679060665362 
1.30765e-06    0.27711198412844 
1.31015e-06    0.2635705351677771 
1.31265e-06    0.2465753424657534 
1.31515e-06    0.2311635535458098 
1.31765e-06    0.2166340508806262 
1.32015e-06    0.204096078318653 
1.32265e-06    0.188454011741683 
1.32515e-06    0.1785957873758786 
1.32765e-06    0.1620352250489237 
1.33015e-06    0.15146771037182 
1.33265e-06    0.1377895564359894 
1.33515e-06    0.1327219546459528 
1.33765e-06    0.1180039138943249 
1.34015e-06    0.1057297775469739 
1.34265e-06    0.1022532407262732 
1.34515e-06    0.0898238747553816 
1.34765e-06    0.08277886497064581 
1.35015e-06    0.0779817387015859 
1.35265e-06    0.06868884540117418 
1.35515e-06    0.06662727941726454 
1.35765e-06    0.05895949749290872 
1.36015e-06    0.05374466424313567 
1.36265e-06    0.0511884177078036 
1.36515e-06    0.04740828710905309 
1.36765e-06    0.04593269090609207 
1.37015e-06    0.04403131115459882 
1.37265e-06    0.04359560231711046 
1.37515e-06    0.04227005870841487 
1.37765e-06    0.04270652487265107 
1.38015e-06    0.04524445821200931 
1.38265e-06    0.04622535696735878 
1.38515e-06    0.05077187794153731 
1.38765e-06    0.05272957995823282 
1.39015e-06    0.06122371206392003 
1.39265e-06    0.06349256448035684 
1.39515e-06    0.07082217285491743 
1.39765e-06    0.07518721071658338 
1.40015e-06    0.08454011741682975 
1.40265e-06    0.08933867053580744 
1.40515e-06    0.09985209859562794 
1.40765e-06    0.1067952429626175 
1.41015e-06    0.1229990279074877 
1.41265e-06    0.1292748918382491 
1.41515e-06    0.1419926669210718 
