
time (s)       VT("/VIP") - V VT("/VOUTP") - VT("/VOUTP") ( VT("/VOUTN") (


2.82e-08       0.1859995517901047 0.1684579183574157 0.4661044434354144 0.2976465250779987
3.07e-08       0.2010334946707694 0.1821213346970553 0.4727900470197205 0.2906687123226653
3.32e-08       0.2156966223735145 0.1954324328948434 0.4792913276325441 0.2838588947377007
3.57e-08       0.2299618880701676 0.2083651092997562 0.4855988411918992 0.277233731892143
3.82e-08       0.2438029816422799 0.2208960296331959 0.491701521283387 0.2708054916501911
4.07e-08       0.2571943681122322 0.2329947266495153 0.4975878414128804 0.2645931147633652
4.32e-08       0.2701113451014331 0.2446436885152666 0.503249254211399 0.2586055656961324
4.570000000000001e-08 0.2825300889941583 0.2558285533730583 0.5086780696109445 0.2528495162378863
4.82e-08       0.2944276931596512 0.2665303493470612 0.5138654937898028 0.2473351444427417
5.07e-08       0.3057822626234247 0.2764376400038254 0.5188024775742607 0.2423648375704353
5.32e-08       0.3165727636852043 0.2861620329792815 0.5234808514947157 0.2373188185154342
5.57e-08       0.3267793297540081 0.2953458383043907 0.5278941362018311 0.2325482978974404
5.82e-08       0.3363831416242337 0.3039920486108724 0.5320448757607328 0.2280528271498603
6.070000000000001e-08 0.3453664546777636 0.3120666117368722 0.5359205381973997 0.2238539264605276
6.320000000000001e-08 0.3537127293340869 0.3195586002279525 0.5395131767458209 0.2199545765178684
6.57e-08       0.3614065697441923 0.3264581277512071 0.54281794915999 0.2163598214087829
6.82e-08       0.3684337805240895 0.3327538001103959 0.5458299527050615 0.2130761525946656
7.07e-08       0.3747814010059886 0.3384398408035367 0.5485477092667359 0.2101078684631992
7.319999999999999e-08 0.380437722314395 0.3435075650871342 0.550967854731344 0.2074602896442099
7.57e-08       0.3853923104538511 0.3479492676815603 0.5530874357266138 0.2051381680450536
7.82e-08       0.3896360259419702 0.3517582457518038 0.5549039052064255 0.2031456594546217
8.07e-08       0.393161024068594 0.3546477790257893 0.5563759769832487 0.2017281979574593
8.32e-08       0.3959608351962106 0.3571769813000005 0.5575784625745129 0.2004014812745124
8.570000000000001e-08 0.3980302784535391 0.3590580697067068 0.5584729984958514 0.1994149287891446
8.820000000000001e-08 0.399365537184473 0.3602894015708754 0.5590583852984513 0.198768983727576
9.07e-08       0.3999641483819169 0.3608687007835184 0.5593339343643378 0.1984652335808194
9.32e-08       0.3998250078595786 0.360794980869762 0.559299315719394 0.1985043348496319
9.57e-08       0.3989483720291496 0.3600675015540393 0.5589546014760867 0.1988870999220474
9.820000000000001e-08 0.397335857901764 0.3586874910288008 0.5583001971434776 0.1996127061146768
1.007e-07      0.3949904399063384 0.3566576885642155 0.5573368750268142 0.2006791864625987
1.032e-07      0.3919164657808908 0.354270418417218 0.5561044572074645 0.2018340387902464
1.057e-07      0.3881195680630843 0.3509577106376531 0.5545251640714469 0.2035674534337938
1.082e-07      0.383606734150072 0.3467078344832272 0.5526071866643864 0.2058993521811592
1.107e-07      0.3783863472145169 0.3421215062803796 0.5504239236229207 0.2083024173425411
1.132e-07      0.372468009480303 0.3369110456943835 0.547942514113457 0.2110314684190734
1.157e-07      0.3658626378548677 0.3310870283417287 0.5451643754975833 0.2140773471558547
1.182e-07      0.3585824161586633 0.3246582747820501 0.5420936786812385 0.2174354038991884
1.207e-07      0.3506408159884344 0.3179572185080469 0.5387432954504308 0.2207860769423838
1.232e-07      0.3420524009624182 0.310349751758051 0.535091777855123 0.2247420260970719
1.257e-07      0.3328330548649877 0.302163112322077 0.5311565545227213 0.2289934422006443
1.282e-07      0.3229997828505418 0.2934133007986389 0.5269452714377542 0.2335319706391152
1.307e-07      0.3125707252785149 0.2841170135947868 0.5224644363613691 0.2383474227665822
1.332e-07      0.3015651179453959 0.2743024207405047 0.5177292627767529 0.2434268420362481
1.357e-07      0.2900032597625093 0.2639696348832135 0.5127367616873127 0.2487671268040993
1.382e-07      0.277906475324631 0.2531400485904391 0.5074944220675611 0.254354373477122
1.407e-07      0.265297078943957 0.241832295783263 0.5020108162249695 0.2601785204417064
1.432e-07      0.2521983417302724 0.2302203586131559 0.4962917283036125 0.2660713696904566
1.457e-07      0.2386344106786976 0.2180083300294859 0.4903520988606034 0.2723437688311175
1.482e-07      0.224630308048687 0.2053772534728411 0.4841991043588996 0.2788218508860585
1.507e-07      0.2102118563991971 0.1923523414461945 0.4778436125032861 0.2854912710570915
1.532e-07      0.1954056624115816 0.1789604411703713 0.4712954995509703 0.292335058380599
1.557e-07      0.1802390353511116 0.1652286033331147 0.4645664887504771 0.2993378854173624
1.582e-07      0.1647399461761541 0.1511839743153829 0.4576688398940115 0.3064848655786286
1.607e-07      0.1489369848704334 0.1368534415019627 0.4506149953681591 0.3137615538661964
1.632e-07      0.1328593031752797 0.122263354202882 0.4434178247231553 0.3211544705202733
1.657e-07      0.1165365561106993 0.1074389449807969 0.4360910188948065 0.3286520739140096
1.682e-07      0.0999988526631817 0.09240662091660905 0.4286483111800177 0.3362416902634087
1.707e-07      0.0832766972995255 0.07719212445880487 0.4211040921685734 0.3439119677097686
1.732e-07      0.06640093523074701 0.06182012699099269 0.4134737549598677 0.351653627968875
1.757e-07      0.04940269513505775 0.04632238914591059 0.4057703423159625 0.3594479531700518
1.782e-07      0.03231333095423932 0.03072419462112786 0.398010032816308 0.3672858381951802
1.807e-07      0.01516436417124079 0.01505588589972806 0.3902097167369928 0.3751538308372648
1.832e-07      -0.00201257390828872 -0.0006500921585521365 0.3823810101622759 0.3830311023208281
1.857e-07      -0.01918579965523537 -0.01635423028721444 0.3745013831235432 0.3908556134107576
1.882e-07      -0.03632363651237906 -0.03201795981605875 0.3666342714660611 0.3986522312821199
1.907e-07      -0.05339447362328721 -0.04760903549723985 0.3587987158959992 0.406407751393239
1.932e-07      -0.07036682375455866 -0.06309719453938009 0.3510077987393778 0.4141049932787578
1.957e-07      -0.08720938054952317 -0.07845743792951744 0.3432705025569125 0.42172794048643
1.982e-07      -0.1038910765756932 -0.09365787071028814 0.3356057195028235 0.4292635902131116
2.007e-07      -0.1203811412508787 -0.1086740205476209 0.3280225719872356 0.4366965925348566
2.032e-07      -0.13664915796616 -0.1234800810978761 0.320532495617142 0.4440125767150181
2.057e-07      -0.1526651188768303 -0.138049693471988 0.31314812624104 0.451197819713028
2.082e-07      -0.1683994825744468 -0.1523575814169855 0.3058811148189359 0.4582386962359214
2.107e-07      -0.1838232234776721 -0.1663773477820991 0.2987450587376953 0.4651224065197944
2.132e-07      -0.1989078915572418 -0.1800820603837108 0.2917544120345854 0.4718364724182962
2.157e-07      -0.2136256669911293 -0.1934444764888028 0.2849241273044192 0.478368603793222
2.182e-07      -0.2279494026361745 -0.2064379878344281 0.2782695608486767 0.4847075486831047
2.207e-07      -0.2418526663794375 -0.2190351898168255 0.2718078994090936 0.490843089225919
2.232e-07      -0.2553098233726399 -0.2312110904196607 0.2655533180719771 0.4967644084916378
2.257e-07      -0.2682960472489665 -0.2427860114903082 0.2596785027360756 0.5024645142263838
2.282e-07      -0.280787398218677 -0.2540550541478481 0.253873406228413 0.5079284603762612
2.307e-07      -0.2927608232108599 -0.2648442288482289 0.2483063076086812 0.5131505364569102
2.332e-07      -0.3041942354636553 -0.2751351705164604 0.2429870247597763 0.5181221952762367
2.357e-07      -0.3150665474137276 -0.2849067831307275 0.2379295869279997 0.5228363700587273
2.382e-07      -0.3253577062389121 -0.2941587941240095 0.2331368169714882 0.5272956110954976
2.407e-07      -0.3350487299128017 -0.3028627072586446 0.2286219009605843 0.5314846082192288
2.432e-07      -0.3441217408116149 -0.311001959624203 0.2243950911462211 0.535397050770424
2.457e-07      -0.3525600036465668 -0.3185611345664673 0.2204642022201069 0.5390253367865743
2.482e-07      -0.3603479115396714 -0.3252137621320567 0.2171381052786371 0.5423518674106937
2.507e-07      -0.3674711845149169 -0.3315927938407919 0.2138061991314962 0.5453989929722881
2.532e-07      -0.3739166403722157 -0.3373662554779169 0.2107870634222001 0.5481533189001171
2.557e-07      -0.3796723902641829 -0.3425253305662861 0.2080853666959289 0.5506106972622151
2.582e-07      -0.384727852169282 -0.3473594843517729 0.2054442494094797 0.5528037337612526
2.607e-07      -0.3890736240652392 -0.3512563925809527 0.2034070152182506 0.5546634077992033
2.632e-07      -0.3927017329142567 -0.3545161886130886 0.2017019770363118 0.5562181656494004
2.657e-07      -0.3956054712498948 -0.3568505590582258 0.2005751561934473 0.5574257152516731
2.682e-07      -0.3977795186524432 -0.358826618905544 0.1995375867556487 0.5583642056611927
2.707e-07      -0.3992198438202689 -0.3601526168379566 0.1988411287697444 0.558993745607701
2.732e-07      -0.3999237899485176 -0.3608259492798612 0.1984876059059093 0.5593135551857705
2.757e-07      -0.3998900585769496 -0.3608455591601399 0.1984776921879468 0.5593232513480867
2.782e-07      -0.3991187119248683 -0.3602114158893341 0.1988114046323826 0.5590228205217166
2.807e-07      -0.3976111727758441 -0.3589245149442405 0.1994881036295309 0.5584126185737714
2.832e-07      -0.3953702219036778 -0.3569872698244544 0.2005060970634119 0.5574933668878663
2.857e-07      -0.392400013745281 -0.3546913925730634 0.2016136872739994 0.5563050798470629
2.882e-07      -0.3887059904904491 -0.3514700659654846 0.2032994244400366 0.5547694904055211
2.907e-07      -0.3842949848166735 -0.3476112802108735 0.2053174388226226 0.5529287190334961
2.932e-07      -0.3791750870483836 -0.3428149791900447 0.2079392469451052 0.5507542261351499
2.957e-07      -0.3733558180222589 -0.3376930912920492 0.2106222078357929 0.548315299127842
2.982e-07      -0.3668478774876575 -0.3319563010884167 0.2136229510798778 0.5455792521682945
3.007e-07      -0.3596632695489638 -0.3256132821271641 0.2169368336367263 0.5425501157638903
3.032e-07      -0.3518152902135319 -0.3189963522785164 0.220245296718511 0.5392416489970273
3.057e-07      -0.3433183280581873 -0.3114723885575847 0.2241586584581893 0.5356310470157741
3.082e-07      -0.3341881006290862 -0.3033675952569067 0.2283681963587061 0.5317357916156127
3.107e-07      -0.324441447934758 -0.2946971073916815 0.2328664417956157 0.5275635491872972
3.132e-07      -0.3140963499217354 -0.2854774352709346 0.2376430763859329 0.5231205116568675
3.157e-07      -0.303171888575319 -0.2757369987553748 0.2426847843582396 0.5184217831136144
3.182e-07      -0.2916882127475668 -0.2654765680107417 0.2479889397477069 0.5134655077584487
3.207e-07      -0.2796665026559279 -0.2547168644798738 0.2535414198299409 0.5082582843098147
3.232e-07      -0.2671289341057117 -0.243476133162343 0.2593325704105288 0.5028087035728718
3.257e-07      -0.25409864519568 -0.2319286415564542 0.265193621411291 0.4971222629677451
3.282e-07      -0.2405996570001987 -0.2197790784758228 0.2714348413151785 0.4912139197910013
3.307e-07      -0.2266568737854386 -0.2072065356739559 0.2778842136527649 0.4850907493267207
3.332e-07      -0.2122960030662398 -0.194236022875721 0.2845274504954365 0.4787634733711575
3.357e-07      -0.1975435447068392 -0.1808950101557642 0.2913472808668363 0.4722422910226004
3.382e-07      -0.1824267103466277 -0.1672100836273992 0.2983283156626013 0.4655383992900005
3.407e-07      -0.1669733794474848 -0.1532084758912742 0.3054555933225958 0.4586640692138699
3.432e-07      -0.151212056033009 -0.1389171600913176 0.3127146097490897 0.4516317698404073
3.457e-07      -0.1351718155957823 -0.1243625767591674 0.3200916855033227 0.4444542622624901
3.482e-07      -0.1188822444606 -0.1095700380456931 0.3275750956741512 0.4371451337198443
3.507e-07      -0.1023733901301647 -0.09456585296425367 0.3351522529730032 0.4297181059372568
3.532e-07      -0.08567570388800011 -0.07937578957232626 0.3428117125811176 0.4221875021534439
3.557e-07      -0.06881998578791608 -0.06402425437097628 0.3505444455637496 0.4145686999347259
3.582e-07      -0.05183732750259168 -0.0485432178340065 0.3583314112735375 0.406874629107544
3.607e-07      -0.03475905450423638 -0.03295740253424784 0.3661643331374484 0.3991217356716962
3.632e-07      -0.01761666767846293 -0.01729732088470827 0.3740287072234557 0.391326028108164
3.657e-07      -0.0004417863077891347 -0.001594660318596901 0.3819073082553588 0.3835019685739558
3.682e-07      0.01673390999914409 0.01411246380314958 0.3897391835533695 0.3756267197502199
3.707e-07      0.03387873990226307 0.02978401239667709 0.3975407302321251 0.3677567178354479
3.732e-07      0.05096107975279197 0.04538732586447834 0.4053030830152542 0.3599157571507758
3.757e-07      0.06794942095685372 0.06089199552430524 0.4130095758810863 0.3521175803567811
3.782e-07      0.08481242796827324 0.07627241805925791 0.4206438831141787 0.3443714650549208
3.807e-07      0.1015189955637709 0.09149705895461431 0.4281930166602415 0.3366959577056272
3.832e-07      0.1180383072727008 0.1065411251969546 0.4356415695411981 0.3291004443442435
3.857e-07      0.1343398919800342 0.1213786805014323 0.4429751750924507 0.3215964945910184
3.882e-07      0.1503936814057426 0.1359837349296492 0.4501798879865789 0.3141961530569297
3.907e-07      0.1661700629603397 0.1503306158044312 0.4572421909145703 0.3069115751101391
3.932e-07      0.181639934730231 0.1643931610984146 0.4641491025166231 0.2997559414182084
3.957e-07      0.1967747599627055 0.1781445638309754 0.4708881771554049 0.2927436133244296
3.982e-07      0.211546626727991 0.1915576385061208 0.4774471330569231 0.2858894945508023
4.007e-07      0.2259282890871923 0.2046053307667224 0.4838142087753272 0.2792088780086048
4.032e-07      0.2398932089843372 0.2172608400174174 0.4899794608867571 0.2727186208693397
4.057e-07      0.2534156355879736 0.2294986401731513 0.4959319208685648 0.2664332806954135
4.082e-07      0.2664706207967202 0.2411382329554675 0.5016646367815513 0.2605264038260837
4.107e-07      0.2790341020097239 0.2524741212150207 0.5071625220724784 0.2546884008574576
4.132e-07      0.2910828913463779 0.2633330188798079 0.5124196362051523 0.2490866173253445
4.157e-07      0.3025947625322172 0.273696178592861 0.5174274503960048 0.2437312718031437
4.182e-07      0.3135484843567635 0.2835420267123548 0.5221781875116919 0.238636160799337
4.207e-07      0.3239238525466481 0.2928702841919961 0.5266749745810574 0.2338046903890613
4.232e-07      0.3337017307698901 0.3016534000862972 0.5309029547439863 0.2292495546576891
4.257e-07      0.3428640807250316 0.3098743902874544 0.5348553137321314 0.2249809234446769
4.282e-07      0.3513940024217399 0.317516958395223 0.5385244373793785 0.2210074789841555
4.307e-07      0.3592757198071316 0.3242536617125952 0.5418928822244716 0.2176392205118764
4.332e-07      0.3664947800730722 0.3307183329631677 0.5449815273159165 0.2142631943527489
4.357e-07      0.3730378242564931 0.3365789378058452 0.5477779087640302 0.2111989709581849
4.382e-07      0.3788927835063595 0.3418265663983034 0.5502777712165036 0.2084512048182002
4.407e-07      0.3840488940170672 0.346751131028985 0.5525133107494411 0.2057621797204562
4.432e-07      0.3884965652782561 0.3507385748538935 0.5544163673311734 0.2036777924772799
4.457e-07      0.3922276380283682 0.3540897099236137 0.5560148098575683 0.2019250999339547
4.482e-07      0.39523521433648 0.3565154335332721 0.5572664778336711 0.2007510443003989
4.507e-07      0.3975137833123968 0.3585840208835352 0.5582490265851313 0.199665005701596
4.532e-07      0.3990591202392474 0.3600031101268647 0.5589227608585831 0.1989196507317184
4.557e-07      0.3998683745887437 0.3607697692520364 0.5592868497083769 0.1985170804563406
4.582e-07      0.399940053647573 0.3608827705017615 0.5593408581329823 0.1984580876312207
4.607e-07      0.3992740252149459 0.3603419859619529 0.5590847179001434 0.1987427319381904
4.632e-07      0.3978715178022542 0.3591482362271742 0.5585187331390451 0.1993704969118709
4.657e-07      0.3957351184249145 0.3573036183089447 0.5576435743711008 0.200339956062156
4.682e-07      0.392868767893959 0.3548119592555529 0.5564602792842204 0.2016483200286674
4.707e-07      0.3892777784215554 0.3519693779526854 0.5550075598825857 0.2030381819299003
4.732e-07      0.3849687314869372 0.3482013549569631 0.5532102787880173 0.2050089238310542
4.757e-07      0.3799495511452541 0.3434956367780177 0.5510783797998801 0.2075827430218623
4.782e-07      0.3742295699193651 0.3384625498316292 0.5486820314007965 0.2102194815691674
4.807e-07      0.3678193054972068 0.3328131874377732 0.5459881469199898 0.2131749594822165
4.832e-07      0.3607305818148577 0.3265561299751241 0.5430006505129501 0.216444520537826
4.857000000000001e-07 0.3529765205156219 0.3200234914803451 0.5397341026217413 0.2197106111413961
4.882e-07      0.3445713294008165 0.3125832394101947 0.5361645372490317 0.223581297838837
4.907e-07      0.3355305643778251 0.3045606018325419 0.5323093923603276 0.2277487905277857
4.932e-07      0.32587089794636 0.295969717955154 0.5281763055484485 0.2322065875932944
4.957e-07      0.3156101490442904 0.2868276199602225 0.5237716124960051 0.2369439925357826
4.981999999999999e-07 0.3047672444306399 0.2771541112016898 0.5191044656406456 0.2419503544389557
5.007e-07      0.2933621838065151 0.2669733177754219 0.5141891466806724 0.2472158289052505
5.032e-07      0.2814160006755239 0.2562838761414483 0.5090172023423802 0.2527333262009319
5.057e-07      0.2689507320070765 0.2451106138855139 0.5036017905904283 0.2584911767049144
5.082000000000001e-07 0.2559893823396298 0.2336274033984671 0.4979482575191799 0.2643208541207127
5.107e-07      0.2425558449376808 0.2215411982943335 0.4920713612174482 0.2705301629231147
5.132e-07      0.2286749046449361 0.2090277360178376 0.4859782695791871 0.2769505335613496
5.157e-07      0.2143721566466178 0.1961122633024126 0.4796795245441562 0.2835672612417435
5.182e-07      0.1996739896362328 0.1828225620998189 0.4731853639915431 0.2903628018917242
5.207000000000001e-07 0.1846075171136149 0.1691850931844432 0.4665068274105206 0.2973217342260774
5.232e-07      0.1692005263196099 0.1552270677778105 0.4596560753665422 0.3044290075887316
5.257e-07      0.153481434142257 0.1409755176823066 0.4526455893997844 0.3116700717174778
5.282e-07      0.1374792389017896 0.1264569636959644 0.445488017013689 0.3190310533177245
5.307000000000001e-07 0.1212234569551314 0.1116968265486107 0.4381968528640084 0.3265000263153977
5.332e-07      0.1047440732997578 0.09672130732404019 0.4307857964993824 0.3340644891753422
5.357e-07      0.08807148484713415 0.08155621149877433 0.4232691069752611 0.3417128954764868
5.382e-07      0.07123644533516975 0.0662256057762952 0.41566208582895 0.3494364800526548
5.407e-07      0.05427000823741707 0.05076192224655384 0.4079777225963537 0.3572158003497999
5.432e-07      0.03720346940815769 0.03518922839338998 0.4002323466596211 0.3650431182662311
5.457e-07      0.02006830792540922 0.01953790173500515 0.3924417828830544 0.3729038811480492
5.482e-07      0.00289612987841455 0.003839232958689299 0.384620867033645 0.3807816340749556
5.507e-07      -0.01428139031470097 -0.01186997726783084 0.3767521514058 0.3886221286736309
5.532000000000001e-07 -0.031432567783213 -0.02754868591498435 0.3688798798051613 0.3964285657201457
5.557e-07      -0.04852576724083692 -0.04316361026693631 0.3610336725046595 0.4041972827715957
5.582e-07      -0.06552945993468361 -0.05868419330528504 0.3532285133129598 0.4119127066182449
5.607e-07      -0.08241228225970276 -0.07408426622919512 0.3454738180516391 0.4195580842808342
5.632e-07      -0.09914309242303133 -0.08933257384368516 0.3377878238645659 0.4271203977082511
5.657e-07      -0.1156910292144799 -0.1044040322331923 0.3301801781112674 0.4345842103444597
