
time (s)       VT("/VIP") - V VT("/VOUTP") - VT("/VOUTP") ( VT("/VOUTN") (


5.02e-08       0.3035558197499476 0.3035508237708115 0.6017753996474227 0.2982245758766112
5.27e-08       0.3144607457987598 0.3144559206660202 0.6072279614414029 0.2927720407753827
5.52e-08       0.3247856354967176 0.3247809849258685 0.6123904886028397 0.2876095036769712
5.77e-08       0.3345114440932518 0.3345070199956061 0.6172535188204871 0.282746498824881
6.02e-08       0.3436202317639711 0.3436160604494603 0.6218080433032458 0.2781919828537855
6.27e-08       0.3520951963570007 0.3520912955593201 0.6260456611977683 0.2739543656384482
6.52e-08       0.3599207060583701 0.3599170869198591 0.6299585560267342 0.2700414691068751
6.77e-08       0.3670823263309113 0.3670790005535366 0.6335395111517933 0.2664605105982567
7.020000000000001e-08 0.3735668471905571 0.3735638249018523 0.6367819211473947 0.2632180962455424
7.27e-08       0.3793623075860093 0.3793595962619424 0.6396798039708925 0.2603202077089501
7.52e-08       0.3844580174666633 0.3844556231943357 0.6422278143293326 0.2577721911349969
7.77e-08       0.3888445775067911 0.3888425052104423 0.644421252259917 0.2555787470494747
8.02e-08       0.392513896438109 0.3925121473673627 0.6462560718245304 0.2537439244571676
8.269999999999999e-08 0.3954592009544527 0.3954577819517365 0.6477288815714467 0.2522710996197102
8.52e-08       0.3976750655879113 0.3976739739977476 0.64883697536895 0.2511630013712025
8.77e-08       0.3991574021286257 0.39915664283781 0.6495783181986711 0.2504216753608611
9.02e-08       0.3999034758775373 0.3999030447804314 0.6499515208674113 0.2500484760869798
9.27e-08       0.399911909796216 0.3999118053764597 0.6499559042261815 0.2500440988497219
9.520000000000001e-08 0.3991826885395269 0.3991829088261875 0.6495914605473575 0.2504085517211699
9.770000000000001e-08 0.397717157911908 0.3977177009567541 0.6488588632211999 0.2511411622644458
1.002e-07      0.3955180211656479 0.3955188846692578 0.6477594637244304 0.2522405790551726
1.027e-07      0.3925893349051809 0.3925905229161689 0.6462952902214683 0.2537047673052994
1.052e-07      0.388936501171663 0.3889380256286777 0.6444690440641813 0.2555310184355035
1.077e-07      0.3845662553287032 0.3845681148799165 0.6422840937568476 0.2577159788769312
1.102e-07      0.3794866515496653 0.3794888512523561 0.6397444686337423 0.2602556173813863
1.127e-07      0.3737070672562294 0.3737096125638952 0.636854852394067 0.2631452398301717
1.152e-07      0.3672381630782802 0.3672410497577357 0.6336205739283288 0.2663795241705931
1.177e-07      0.3600918712463249 0.3600951246972801 0.6300476315116966 0.2699525068144165
1.202e-07      0.3522813735094195 0.3522849519745317 0.6261425400650936 0.2738575880905619
1.227e-07      0.3438210757838098 0.3438249914457996 0.6219125587744493 0.2780875673286496
1.252e-07      0.3347265906010571 0.3347308138536557 0.6173654622920453 0.2826346484383896
1.277e-07      0.3250146895938488 0.3250192177903199 0.6125096568612783 0.2874904390709584
1.302e-07      0.3147032837840691 0.3147081102951961 0.6073540935384456 0.2926459832432495
1.327e-07      0.3038113930448334 0.3038165078027906 0.6019082812112515 0.2980917734084609
1.352e-07      0.2923591089972468 0.2923645044737722 0.5961822691317323 0.3038177646579601
1.377e-07      0.2803675552899518 0.2803732084939537 0.5901866068338921 0.3098133983399384
1.402e-07      0.2678588508595962 0.267864735973189 0.5839323548617089 0.31606761888852
1.427e-07      0.2548560688741489 0.2548621676527293 0.5774310592204928 0.3225688915677635
1.452e-07      0.2413831934890057 0.2413894841969843 0.5706947089603049 0.3293052247633206
1.477e-07      0.2274650762339063 0.2274715336785624 0.5637357320766012 0.3362641983980388
1.502e-07      0.21312738990888 0.2131339924603587 0.5565669656995371 0.3434329732391784
1.527e-07      0.1983965810704424 0.1984033095749848 0.5492016342117833 0.3507983246367984
1.552e-07      0.1832998219869779 0.1833066722004409 0.5416533270346184 0.3583466548341775
1.577e-07      0.1678649587115352 0.1678719205194676 0.5339359654719958 0.3660640449525283
1.602e-07      0.1521204613373043 0.1521275249553218 0.5260637863784919 0.37393626142317
1.627e-07      0.1360953714077865 0.1361025293116483 0.5180513084542289 0.3819487791425805
1.652e-07      0.1198192479825135 0.1198264960068646 0.509913312022964 0.3900868160160995
1.677e-07      0.1033221131422487 0.1033294703472275 0.5016648091605174 0.3983353388132899
1.702e-07      0.08663439656293354 0.08664185437122364 0.4933210134600309 0.4066791590888073
1.727e-07      0.06978687925248722 0.06979444018564201 0.4848973110906826 0.4151028709050406
1.752e-07      0.05281063701008205 0.05281827464342555 0.4764092881926166 0.423591013549191
1.777e-07      0.03573698279111349 0.03574469869036441 0.4678725053105689 0.4321278066202045
1.802e-07      0.01859740894934444 0.01860516433355755 0.4593027203114817 0.4406975559779242
1.827e-07      0.0014235309325992 0.001431301678475503 0.4507157666790049 0.4492844650005294
1.852e-07      -0.01575297251695096 -0.01574519227859305 0.4421274836495522 0.4578726759281452
1.877e-07      -0.03290041811936611 -0.03289266089877486 0.4335537384276372 0.466446399326412
1.902e-07      -0.04998717702064778 -0.04997945978496703 0.4250103365338714 0.4749897963188384
1.927e-07      -0.06698173223172568 -0.06697409484899969 0.4165129791257675 0.4834870739747672
1.952e-07      -0.08385273677542562 -0.08384516275026924 0.4080774456946743 0.4919226084449436
1.977e-07      -0.1005690714561405 -0.1005615676941958 0.3997192488863145 0.5002808165805104
2.002e-07      -0.117099902341573 -0.1170924941890591 0.3914537864335288 0.5085462806225879
2.027e-07      -0.1334147375942498 -0.1334074433283295 0.3832963119817563 0.5167037553100858
2.052e-07      -0.1494834837871694 -0.149476321188122 0.3752618723850207 0.5247381935731427
2.077e-07      -0.1652765013931164 -0.1652694869312241 0.3673652886149208 0.5326347755461449
2.102e-07      -0.1807646598270975 -0.1807578138510403 0.3596211247221993 0.5403789385732396
2.127e-07      -0.1959193899553372 -0.1959127177804603 0.3520436728871645 0.5479563906676248
2.152e-07      -0.2107127384411209 -0.2107062480633483 0.3446469090862034 0.5553531571495517
2.177e-07      -0.2251174180863604 -0.2251111143213122 0.3374444791682734 0.5625555934895856
2.202e-07      -0.2391068587028541 -0.2391007470073539 0.3304496672246909 0.5695504142320448
2.227e-07      -0.252655256138296 -0.2526493412542439 0.3236753763303186 0.5763247175845625
2.252e-07      -0.2657376197354058 -0.2657319061336773 0.3171341019107379 0.5828660080444152
2.277e-07      -0.2783298182602793 -0.2783243157898144 0.3108379062432587 0.5891622220330731
2.302e-07      -0.2904086257385451 -0.2904033426608526 0.3047984013219406 0.5952017439827932
2.327e-07      -0.3019517625129767 -0.3019467065365651 0.299026728710783 0.6009734352473481
2.352e-07      -0.3129379354697328 -0.3129331201898211 0.2935335272029335 0.6064666473927546
2.377e-07      -0.3233468803169207 -0.3233423155420124 0.288328933878 0.6116712494200124
2.402e-07      -0.3331594025122632 -0.3331550746796851 0.2834225513602902 0.6165776260399752
2.427e-07      -0.3423573971002917 -0.3423533273932022 0.2788234277667877 0.6211767551599899
2.452e-07      -0.3509238989948968 -0.3509200934316259 0.2745400452646426 0.6254601386962685
2.477e-07      -0.3588431058115318 -0.358839572157917 0.2705803034875355 0.6294198756454524
2.502e-07      -0.3661004100095216 -0.3660971151389228 0.2669514977781932 0.633048612917116
2.527e-07      -0.3726824253113657 -0.3726794139040968 0.2636603380166072 0.636339751920704
2.552e-07      -0.3785770107462071 -0.3785742914162038 0.2607128881661033 0.6392871795823072
2.577e-07      -0.3837732934602343 -0.3837708739917136 0.2581145858646415 0.641885459856355
2.602e-07      -0.388261678620893 -0.3882595689809358 0.2558702342808198 0.6441298032617556
2.627e-07      -0.3920338992526363 -0.392032111480608 0.2539839560492556 0.6460160675298636
2.652e-07      -0.3950829970400186 -0.3950815339894246 0.2524592394773312 0.6475407734667558
2.677e-07      -0.397403347837768 -0.397402216366057 0.2512988918932799 0.6487011082593369
2.702e-07      -0.3989906710531997 -0.3989898668113737 0.2505050650727907 0.6494949318841643
2.727e-07      -0.3998420392311281 -0.3998415620512956 0.2500792177773637 0.6499207798286594
2.752e-07      -0.3999558819595783 -0.3999557310342558 0.2500221355394224 0.6499778665736782
2.777e-07      -0.3993319892570507 -0.3993321632727657 0.2503339237185642 0.6496660869913299
2.802e-07      -0.3979715118314989 -0.397972008895826 0.2510140072268932 0.6489860161227192
2.827e-07      -0.3958769590802103 -0.3958777769598253 0.2520611315487902 0.6479389085086156
2.852e-07      -0.393052194720078 -0.3930533351879186 0.253473360664934 0.6465266958528526
2.877e-07      -0.3895024291045455 -0.3895039060930328 0.2552480775590926 0.6447519836521254
2.902e-07      -0.385234209118015 -0.385236019461411 0.2573820258499233 0.6426180453113343
2.927e-07      -0.3802553978744138 -0.3802575524826773 0.2598712644057098 0.6401288168883871
2.952e-07      -0.3745751879254649 -0.3745776842868652 0.2627112034233898 0.637288887710255
2.977e-07      -0.3682040569003734 -0.3682068949733193 0.2658966012521956 0.634103496225515
3.002e-07      -0.3611537565776047 -0.3611569629573817 0.269421588249891 0.6305785512072728
3.027e-07      -0.3534372916415829 -0.3534408239860906 0.2732796530434983 0.6267204770295889
3.052e-07      -0.3450688943589174 -0.345072765797604 0.2774636814965453 0.6225364472941493
3.077e-07      -0.3360640072310477 -0.336068186610652 0.2819659629575623 0.6180341495682142
3.102e-07      -0.3264392383522673 -0.3264437233180348 0.2867781875052361 0.6132219108232709
3.127e-07      -0.3162123370244594 -0.3162171214541225 0.2918914791485976 0.6081086006027201
3.152e-07      -0.3054021672436684 -0.3054072415252251 0.2972964081586575 0.6027036496838827
3.177e-07      -0.2940286696961848 -0.2940340256642244 0.3029830055305525 0.5970170311947769
3.202e-07      -0.282112823115477 -0.2821184412002016 0.3089407842419 0.5910592254421015
3.227e-07      -0.2696766064808118 -0.2696824591589344 0.3151587592490454 0.5848412184079796
3.252e-07      -0.2567429593877147 -0.2567490291356817 0.3216254621926332 0.5783744913283149
3.277e-07      -0.2433357384208657 -0.2433420033627703 0.3283289659053714 0.5716709692681418
3.302e-07      -0.2294796739686501 -0.2294861087967217 0.3352569107486739 0.5647430195453956
3.327e-07      -0.2152003244572995 -0.215206907464706 0.3423965148283528 0.5576034222930587
3.352e-07      -0.2005240287250836 -0.2005307396024783 0.3497346080432515 0.5502653476457298
3.377e-07      -0.1854778585697023 -0.1854846915974771 0.3572576434560387 0.5427423350535158
3.402e-07      -0.1700895668356863 -0.170096513655026 0.3649517460583087 0.5350482597133347
3.427e-07      -0.1543875375926191 -0.15439458726056 0.3728027275179699 0.5271973147785299
3.452e-07      -0.1384007340597726 -0.1384078788003114 0.3807961015141458 0.5192039803144571
3.477e-07      -0.1221586446799846 -0.1221658800179109 0.3889171211329798 0.5110830011508908
3.502e-07      -0.1056912287564924 -0.1056985716931647 0.3971507861108265 0.5028493578039912
3.527e-07      -0.08902886117160384 -0.08903630457961015 0.4054819324250544 0.4945182370046645
3.552e-07      -0.07220227624839512 -0.07220982718726641 0.413895175879827 0.4861050030670935
3.577e-07      -0.05524251102609249 -0.05525013666775606 0.4223750820297082 0.4776252186974643
3.602e-07      -0.03818084823189728 -0.0381885536595725 0.4309058781720898 0.4690944318316623
3.627e-07      -0.02104875812410619 -0.02105650985120347 0.4394718873242439 0.4605283971754474
3.652e-07      -0.003877842001410018 -0.003885611756692904 0.4480573126182013 0.4519429243748942
3.677e-07      0.01330022672301297 0.01329244445816114 0.4566463045443107 0.4433538600861495
3.702e-07      0.03045376178671246 0.03044600022560729 0.465223069892282 0.4347770696666747
3.727e-07      0.0475511230675566 0.04754339918211462 0.4737717660395214 0.4262283668574068
3.752e-07      0.06456077403023219 0.06455312892146074 0.482276591209447 0.4177234622879863
3.777e-07      0.08145133986285977 0.08144375580435669 0.4907219048587848 0.4092781490544281
3.802e-07      0.09819166530219293 0.09818414932045204 0.4990921072472227 0.4009079579267706
3.827e-07      0.1147508721692816 0.1147434492064913 0.507371758041432 0.3926283088349407
3.852e-07      0.1310984162938023 0.1310911046858566 0.5155455860273265 0.3844544813414699
3.877e-07      0.1472041439066943 0.1471969612696128 0.523598513746509 0.3764015524768962
3.902e-07      0.1630383473009022 0.1630313108959559 0.5315156876347327 0.3684843767387768
3.927e-07      0.178571819836518 0.1785649494168088 0.5392825063921405 0.3607175569753317
3.952e-07      0.1937759089390584 0.1937692116113696 0.5468846375068088 0.3531154258954393
3.977e-07      0.2086225700890602 0.2086160534333343 0.5543080595322321 0.3456920060988978
4.002e-07      0.2230844178621662 0.2230780869829413 0.5615390793610068 0.3384609923780655
4.027e-07      0.2371347765799378 0.2371286372129814 0.5685643585752509 0.3314357213622694
4.052e-07      0.2507477296888349 0.2507417863384537 0.575370939136315 0.3246291527978614
4.077e-07      0.2638981675216172 0.2638924244467242 0.5819462661958054 0.3180538417490811
4.102e-07      0.2765618332327684 0.2765563002936877 0.5882782132319483 0.3117219129382606
4.127e-07      0.2887153688856459 0.2887100540395046 0.5943550984488609 0.3056450444093563
4.152e-07      0.3003363571259932 0.3003312682871609 0.6001657148346974 0.2998344465475364
4.177e-07      0.311403361438324 0.3113985111682755 0.6056993422031345 0.2943008310348589
4.202e-07      0.3218959677642615 0.3218913668762364 0.610945774207179 0.2890544073309426
4.227e-07      0.3317948278525978 0.3317904636089121 0.6158953199534603 0.2841048563445482
4.252e-07      0.3410816773727565 0.3410775705053603 0.6205388763988492 0.279461305893489
4.277e-07      0.3497393875739703 0.3497355438366463 0.624867863998386 0.2751323201617398
4.302e-07      0.357751987598466 0.3577484145890311 0.6288742973807774 0.2711258827917464
4.327e-07      0.3651046976343695 0.3651013629975112 0.632550738226782 0.2674493752292708
4.352e-07      0.371783955417371 0.3717809029755137 0.6358904980004716 0.2641095950249578
4.377e-07      0.3777774406065926 0.3777746790473052 0.6388873749984089 0.2611126959511037
4.402e-07      0.3830740979235052 0.3830716351735387 0.6415358419708287 0.25846420679729
4.427e-07      0.3876641486748375 0.3876619933565448 0.6438310165761846 0.2561690232196397
4.452e-07      0.3915391355190812 0.3915373015640669 0.6457686634695687 0.2542313619055018
4.477e-07      0.3946919121502375 0.3946904025771512 0.6473452084144361 0.252654805837285
4.502e-07      0.3971166631981082 0.3971154850214665 0.6485577429696116 0.2514422579481451
4.527e-07      0.3988089154562058 0.3988080644658269 0.6494040308199428 0.2505959663541159
4.552e-07      0.3997655479213504 0.3997650240519443 0.6498825106656455 0.2501174866137012
4.577e-07      0.3999847960302626 0.3999845985716727 0.6499922999004042 0.2500077013287314
4.602e-07      0.3994662553953174 0.3994663831134857 0.6497331961879844 0.2502668130744987
4.627e-07      0.3982108823950471 0.3982113334434763 0.6491056773856213 0.2508943439421449
4.652e-07      0.3962209924998051 0.3962217647140724 0.6481109010832452 0.2518891363691728
4.677e-07      0.3935002563940408 0.3935013492980531 0.6467507024514335 0.2532493531533805
4.702e-07      0.390053692724055 0.3900551181952179 0.6450275907421018 0.2549724725468838
4.727e-07      0.385887658785081 0.3858894202695864 0.6429447449925431 0.2570553247229566
4.752e-07      0.3810098276685223 0.3810119331877979 0.6405060065599534 0.2594940733721555
4.777e-07      0.37542920602175 0.3754316510977868 0.6377158717413368 0.26228422064355
4.802e-07      0.36915608802024 0.3691588774633806 0.634579487140051 0.2654206096766704
4.826999999999999e-07 0.3622020446484416 0.362205203871024 0.6311026721845205 0.2688974683134966
4.852e-07      0.3545799030366282 0.3545833891161922 0.6272917605045152 0.2727083713883229
4.877e-07      0.3463037212676893 0.3463075483166162 0.623153839837405 0.2768462915207888
4.902e-07      0.3373887712195806 0.3373929066633259 0.6186965104604292 0.2813036037971032
4.927e-07      0.3278514968359911 0.3278559384368289 0.6139280195457579 0.286072081108929
4.952e-07      0.3177094850278348 0.317714227162514 0.6088571549172676 0.2911429277547535
4.977e-07      0.3069814432042264 0.3069864767028027 0.6034932688775571 0.2965067921747544
5.002e-07      0.2956871603622293 0.2956924764135281 0.5978462580424496 0.3021537816289215
5.027e-07      0.283847469539479 0.2838530520731155 0.5919265331717211 0.3080734810986056
5.051999999999999e-07 0.2714842089677691 0.2714900289300041 0.5857450052947116 0.3142549763647075
5.077e-07      0.2586201836663635 0.2586262238399274 0.5793130901482482 0.3206868663083208
5.102e-07      0.2452791219026944 0.2452853611909032 0.5726426493474928 0.3273572881565895
5.127e-07      0.2314856319216608 0.2314920435672203 0.5657459869906625 0.3342539434234422
5.152e-07      0.2172651568380375 0.2172717199420883 0.558635827701212 0.3413641077591236
5.177e-07      0.2026439268029892 0.2026506202706751 0.5513252863504526 0.3486746660797776
5.202e-07      0.1876489120173232 0.187655727478113 0.5438278514251548 0.3561721239470417
5.227e-07      0.1723077711847224 0.1723147026341425 0.5361573519977965 0.363842649363654
5.252e-07      0.1566488012510134 0.1566558367819385 0.5283279368381056 0.3716721000561671
5.276999999999999e-07 0.1407008860108166 0.14070801746463 0.5203540467883128 0.3796460293236828
5.302e-07      0.1244934421831488 0.1245006647503625 0.5122503906501306 0.3877497258997681
5.327e-07      0.1080563651657216 0.1080636939238405 0.5040319168530403 0.3959682229291998
5.352e-07      0.09141997390113399 0.09142740287238879 0.4957137845726916 0.4042863817003028
5.377e-07      0.07461495480958948 0.07462249183225576 0.4873113339919319 0.4126888421596762
5.401999999999999e-07 0.0576723051896391 0.05767991865599196 0.4788401092465816 0.4211601905905896
5.427e-07      0.0406232761746092 0.04063097099836053 0.4703156397760612 0.4296846687777007
5.452e-07      0.02349931482971473 0.02350706250383114 0.4617536779491349 0.4382466154453037
5.477e-07      0.006332007075132688 0.006339775451433744 0.453170009126289 0.4468302336748552
5.501999999999999e-07 -0.01084698013976202 -0.0108392125826627 0.4445804951867078 0.4554197077693705
5.527e-07      -0.02800595887804085 -0.0279981933482969 0.4360009742119061 0.463999167560203
5.552e-07      -0.04511327883937494 -0.0451055486540132 0.427447292259303 0.4725528409133162
5.577e-07      -0.06213738515362673 -0.06212973250399807 0.4189351607178138 0.4810648932218119
5.601999999999999e-07 -0.07904687635855619 -0.07903928281558886 0.4104803854430019 0.4895196682585907
5.626999999999999e-07 -0.0958105622939503 -0.09580303438284801 0.4020985152730533 0.4979015496559013
5.652e-07      -0.1123975216980993 -0.1123900842811598 0.3938049911933494 0.5061950754745093
5.677e-07      -0.1287771592180568 -0.1287698305980591 0.3856151184069161 0.5143849490049752
5.702e-07      -0.1449192618775794 -0.144912059466181 0.3775440035087257 0.5224560629749068
5.726999999999999e-07 -0.1607940549091766 -0.1607869967798213 0.3696065339155713 0.5303935306953925
5.752e-07      -0.1763722567185736 -0.1763653619161552 0.3618173507640305 0.5381827126801857
5.777e-07      -0.1916251323838961 -0.1916184101760459 0.3541908265591516 0.5458092367351974
5.802e-07      -0.2065245472148573 -0.2065180043210981 0.3467410303986881 0.5532590347197862
5.826999999999999e-07 -0.2210430186332689 -0.2210366607070079 0.3394817050943178 0.5605183658013257
5.851999999999999e-07 -0.2351537664619764 -0.2351475994749004 0.3324262395188177 0.567573838993718
5.877e-07      -0.2488307627223968 -0.2488247909636834 0.3255876495332875 0.5744124404969709
